1e+20,63.3134481345556,28.9463489730087,39.0075597055674,48.9719750838811,52.2272664230095,48.3738218022124,41.0719127354045,56.7203039291819,52.2983510358066,48.2061058589558,47.5876908967025,53.2073998428538,50.6099076437788,32.6540234571517,63.3709708963669,53.5705106921584,55.7326212686955,42.1659247979676,21.4933331945599,63.5749329180707,44.304218819461,48.0883737496835,79.723824477327,46.2236853944205,56.8829472263669,53.8359534368074,51.4628697871956,45.0787868897766,50.2582773799462,62.5355602473028,59.0956758156622,55.2392724699372,52.4432259829494,66.6141170815346,51.6844711012276,57.7883142013094,52.6062876216939,63.1700315743444,58.3719838313015,42.965212329905,57.2443990533239,46.4042876022103,26.1282319294411,40.1670968604559,50.4030666068758,68.9516000707936,64.635910808473,43.7314099999646,48.0655111727085,50.0025729393803,32.5586842956087,58.1110041045355,63.3295228027961,50.3101769236015,49.7723031086692,55.8948093048185,14.7701862823366,46.562128258967,51.9020395675499,71.2991097485484,63.4130205104101,64.3661857949786,59.8706255011769,46.5693422458427,51.9394869046172,43.7861691693397,54.0433703099681,48.1477304020467,65.5846314124855,23.6907433345686,47.4847285867315,40.3796496085338,57.4770660670923,48.8200599823278,60.5896451953094,66.2400824910353,55.0186781357053,59.5104187584628,23.2689277441993,44.9230998039743,73.3022021695544,67.2588282654829,49.3497191533631,27.2755785034552,37.7466351256676,66.6311667866007,57.0446528249241,48.3264030893762,37.0310728168177,33.8300089331915,41.8818775635048,53.7277007681986,41.5173866372193,42.6225541334723,39.9511897416685,60.8391595573241,32.1909589816897,46.246903730444,39.7530165629975
63.3134481345556,1e+20,63.1870469487878,77.3578144526009,62.986696397189,48.3673756943339,71.9129657702326,69.0850669091376,39.7604451435676,73.0253232780341,60.1292853294635,66.8782541818534,51.7067126913162,51.7801798749106,77.5067113306188,67.2957100045303,54.7792046607495,61.4208573285896,64.9025342883767,72.2605290680836,58.6724469673389,54.4569810287433,53.3990688898543,82.6705833797535,65.4348910624413,51.1478351852699,83.8920161719272,72.7387143026053,66.9920691402591,55.4351771678862,58.5823496151365,48.7076867890508,69.0315451163029,54.5530194616426,50.9982983870299,52.2344017876991,43.8653849306048,66.2425445231535,59.8560051734641,59.5080492095037,71.8327521722448,59.3689586912199,53.1545974341181,69.5741351331494,57.1390350868396,61.2617429429308,82.9419884189529,77.9721888810822,67.9400810110771,58.9952487458216,79.7760416245193,68.4179883820383,73.9723686434291,57.0794816171897,68.8055921817194,62.844709937664,46.2045981146885,66.8327269634514,73.0578427063196,52.6466329315696,54.0452999701654,80.7339398890414,69.7247018151856,43.2761308158016,45.5483340777633,58.7630590011395,48.9939873448302,72.6887574603426,75.4784772345294,58.1034138333682,61.6203767215254,61.9094819369476,59.1737201334792,47.3682574683115,53.1296967604912,50.1499033028332,52.9117409106505,50.2856212107518,58.8603699107552,63.3885127467169,69.6727340207827,44.2896960783131,56.5159279061553,72.566635849342,70.3275462137749,73.2639101717436,68.064721210242,59.2457380796142,68.6954030463166,75.4347520098865,69.8730960147261,39.8246073654807,60.2722717096625,59.1280913958261,70.1266856039875,64.8938035173357,63.8900390853914,66.7082626432792,51.263892870309,54.7984225143266
28.9463489730087,63.1870469487878,1e+20,59.8013295537662,48.2283233536517,27.8878741916978,46.68330337591,59.270855678263,42.8555947010745,61.6148609460693,18.2687951664176,30.3000271919261,60.9838133799558,51.2362051757537,47.6204353190038,71.0361921233808,44.1470187474378,55.2176908063943,56.2534167266877,42.8362509627646,56.5661433598702,29.1082471625897,55.3837141995153,82.797684721027,38.6294311921666,57.423752754085,66.5634512117734,52.3437683340054,32.7436367532095,33.6031291973648,45.8646593965231,58.4856686814349,61.2309613002946,31.4378545199724,59.6924948830771,45.5201865185015,40.3310735896713,62.1085955880014,43.9729198341085,39.553052699144,48.7736270860632,33.9820021377701,32.7947231401751,31.4241687649768,36.1193282839102,46.6159588241467,69.6542561442462,86.4411521597526,47.5070297440845,58.8384182595367,66.9370219448848,35.304775879637,66.3367462778433,61.8083809003745,49.4288300989669,37.4846148858207,55.613367132664,31.4630756166097,47.2111541471355,29.7526156474544,60.9754775070122,78.7015206711826,54.5731814843152,35.7555330582294,36.5634364516979,57.3706706647775,31.1355209222714,44.988652646881,51.1647566922354,65.6821591801942,37.4697147832853,41.9366516270369,46.6315473585361,32.480942225909,28.0150581532278,41.7352124989888,63.1266886949496,31.705525940831,70.7697659591093,52.1827890136574,49.2860623439685,63.2373131221016,63.4780953564219,55.8473008328604,37.585328946297,45.3975365261654,86.0100840462124,59.6670289593413,62.6670861423367,49.188063584833,55.7530169822449,38.1901196879073,60.5166732441681,46.007836675768,57.8855858008219,15.4966971109665,61.0141508419553,34.0035010187526,28.549070957721,40.2800619264023
39.0075597055674,77.3578144526009,59.8013295537662,1e+20,55.8688034649105,54.9711562125508,55.8861633294692,40.5770025023989,74.8253451490963,50.6312489703308,59.0182847991562,72.5947578794932,61.094255646554,58.7472585640201,47.3568067365521,63.9989677633336,62.9771558749609,66.5513745412771,35.5656235836541,41.9834608025104,70.3673474062838,69.9431213529093,66.5053357572839,69.9037320850422,55.3465225996071,52.9274899096515,59.1017913514373,55.2497923108253,67.7377913271918,68.4513988710497,72.2109710543727,73.5081608393275,57.1143038931848,65.6092160122613,67.5778441901837,64.3586337846898,64.2884288768803,54.9021969839158,65.2383072312554,66.7887260812092,50.6813649435282,85.6159820012569,60.9917815372948,59.7435014832852,62.9661776882886,62.2018074121262,63.9362210651057,53.9529977236652,43.0959952147279,41.8261850174493,50.7153724063198,42.9229357479473,57.4968935423971,75.608392630456,57.1430911065661,58.138588492609,75.3397587713048,54.4694539706546,55.0108291209947,67.6287865996382,74.0506716377257,49.6939822080353,69.4317486912409,74.3048918736635,65.6688908018874,42.7270783185363,66.7594169453556,60.0557170909463,56.5728046174821,67.1373424787503,45.5984477280632,50.4683844601556,55.9668140809015,64.1578177642339,73.6440560702007,63.9309447125813,65.107357114671,73.5725564860467,65.118955750792,40.0911198086523,56.3550974013257,56.9363034423444,70.8382329184332,55.8843629141927,59.7519642133792,59.2712743079568,58.5618884951382,64.0019524801678,50.7007865788986,50.3473997061777,52.4338743157788,65.4562296127261,65.5611628803796,66.9858039800432,50.1656739268382,75.2250046983525,61.347320734146,32.6369362079313,64.4982060076062,71.3902629848137
48.9719750838811,62.986696397189,48.2283233536517,55.8688034649105,1e+20,47.0163301270676,61.7367987666398,41.0523778839502,41.3412673903503,27.7574168613813,35.3476230473253,56.6828794221683,67.2075883853642,25.2267950738121,61.165421302973,40.9053629831079,11.1296892475944,25.5258047860295,36.5613576697733,58.678332820253,59.3547062883695,47.2587123862106,30.7715799334242,37.3612571022478,20.0617207678079,63.9940258457251,31.5090030751561,67.278394563366,42.3107781009711,28.3319088481132,23.4393004393401,34.9303912661793,25.131196327774,29.145318652817,40.6261005070382,25.5552157140854,31.8185726650063,25.0810161256939,64.0223940704589,21.3921584659401,48.9287823686658,43.7138518933068,49.6299744683755,48.0048720852302,51.5813302809715,20.2570523265934,33.9680778002689,74.4831928794746,30.6625586525172,29.2428812457874,34.8222580101158,29.1463440801188,26.3088141277114,74.1891160884828,20.0038720499974,26.0391635739772,26.3588499023147,45.5773966467081,22.525250175128,32.9371023662444,34.5119196748454,47.8548635016796,55.9746330501286,34.387900357684,45.514778481503,61.2069180877168,50.1238422670583,36.671809429258,23.7258788240324,28.5639615620259,47.1856518758992,12.8339413908992,44.5445095786093,39.2510834338607,25.5142315819814,33.0405488917134,47.3832426865567,25.3583025188005,32.6934128552075,64.7127486226627,31.4590944654573,41.849303626958,29.6083112103889,49.6991231344065,52.0805838095182,56.8906082555311,36.9591910617887,31.3981954145494,41.1565609185257,32.7286374857996,59.5903453478652,48.8343557761994,39.9275388143716,83.710295762246,50.2907894041456,49.8544415745785,21.2138410753009,38.0017419033777,46.1987191892267,14.6893252105182
52.2272664230095,48.3673756943339,27.8878741916978,54.9711562125508,47.0163301270676,1e+20,50.3121937653621,54.6697623503638,21.0258971653608,59.4837431000241,25.440565002328,38.9619500206325,55.8950752812278,49.9267765126856,55.1146370784394,59.9955055006697,40.8136558118618,57.5741844329952,57.0171987245545,61.7903733181498,57.9837509708237,28.313823900235,48.4388013977359,57.2858930236069,40.9610059676462,44.145112894552,68.4048223565065,69.8961477242628,39.7555403633244,31.0908751861732,36.5089687615571,44.8749849547219,62.5904302405676,26.5931888365883,40.0562599674595,33.7897548390469,36.0149365530351,63.7521946384372,51.2571607609632,37.0684879846438,49.553291584515,39.8977232554642,20.2115841974752,46.8525448003277,38.2837766853933,46.7124748422863,59.188399699889,72.7790870517028,42.2431195464675,39.4261722491785,66.2804416859919,46.5086149467424,64.4569630292643,75.2391948814552,53.0992456473105,34.3347975017477,46.6259938632563,50.9472732367817,46.4231583568303,20.7763717127487,54.5069134047061,50.5490758074375,50.5332531615092,22.0532567530586,17.1919076018353,49.6114724535204,18.3723940164106,44.8181719455046,57.5347455946256,51.1534629915943,54.4684738193439,37.3955999438861,67.7360724551013,11.3173314559356,32.0089348265725,24.8822303325648,40.6778330196457,28.5656016323918,73.9449786787919,70.0166273300248,54.8369949126913,45.5183449618601,50.8376056587076,52.5064326624581,46.8924395558049,51.3511053212358,62.4834976729933,47.1666779300894,54.3170723487013,52.0909457582257,77.5814421582836,21.5870163427024,50.93936876095,66.1111284522702,63.5403564448272,31.5374360431019,38.6828181717312,35.7601998098869,13.3714151268274,46.0899390902767
48.3738218022124,71.9129657702326,46.68330337591,55.8861633294692,61.7367987666398,50.3121937653621,1e+20,39.0847383264463,61.0916564152976,47.0314593239901,53.1810639657811,51.0171006126828,61.3389397170368,63.1478483633697,20.8596018293265,49.8509032292656,67.8203946012121,50.6591803501371,54.1673518583029,44.3036900500612,54.2843097567344,43.8693666120494,39.6221003736654,84.094658119724,45.9879547462901,52.1825508144997,59.177986621218,68.6894207954544,56.0128449512019,58.0610655583335,63.3658663496457,39.2529718664689,46.2887848976148,53.5740303789434,40.8322290612747,64.8835096488872,50.8681982983764,50.0567341123996,54.0173441493157,60.1422594211442,21.8753454465256,61.3667314555863,54.4622916588545,38.2252718460509,43.04912014534,53.0065901507244,48.2167116726494,56.4510214187423,52.0830668217543,66.4065863055318,57.1976390212584,53.0290752984379,45.8096349801578,59.5588129111752,44.8698840737159,50.5004156051639,73.4414413080136,51.9717028196551,44.5818546200595,53.5185027776976,46.0501525519353,40.5641688629803,30.7596910385167,64.3318781115921,60.0466534279132,56.2294524268487,54.9157167833105,57.0013695917489,47.9476217022242,41.4614567430876,47.5259251320761,56.5004571801499,53.8681227216936,57.1828661832768,59.3077159790176,60.1360397756099,40.9711092506151,55.5165090216134,58.8840113615026,56.6051343412697,56.8246869600024,69.0556234870607,39.2611567982206,44.3556301734615,34.2752153359014,19.7578462835855,72.5694246519051,36.8534518181017,69.6172784315714,51.7521470655828,54.5538161978534,53.6195199659953,33.0371504641307,60.2200490905925,33.2698439373857,51.7723104766799,71.0309871068448,39.9462901378082,47.0472772900837,54.661332516907
41.0719127354045,69.0850669091376,59.270855678263,40.5770025023989,41.0523778839502,54.6697623503638,39.0847383264463,1e+20,68.1486574838043,14.8975057354621,58.8250661338243,69.6320286531527,63.1528763032432,45.7223306644948,38.4189120861381,32.2933546113098,50.4832496100224,45.3010524224541,38.9383155277575,25.9867311677807,50.6926799224114,55.4461601766626,40.7157697883125,73.6144662790526,45.7208127320498,51.2781699482482,35.8863074280659,63.6460466631905,43.1462848304713,60.9573911725087,55.0417998322761,44.9450582920561,21.0954507417522,60.6863911071232,45.9868600608823,59.2719468719224,57.0996489473168,20.2808522072155,63.1458453488443,54.1527019755305,26.7498036528216,83.039101043759,67.5380486816811,49.2885814913437,56.1517977091375,49.9473367575826,33.0928779152685,67.9902093128351,28.4272673796451,34.9265910089102,23.5042408348398,44.848009864746,18.219912356583,69.6150776735284,34.2524621576968,51.7226842025675,66.636109604768,57.0338577096964,38.7267413853833,63.1149719892369,38.4434646512016,23.2438499641708,47.3009468190024,70.6554536490492,64.4901978323349,34.525699619444,62.042291823527,52.1672429837349,34.9578892061539,30.0267296649599,40.9590142338715,39.3153758264739,59.0078808715207,60.5626243286598,66.0060212042851,44.0534575768999,41.8024901848269,64.4558262097476,32.5262646646976,39.6936390571415,40.8004413299561,64.5689126754201,35.1865297080447,42.6879138362032,47.5138255652614,33.4976462519692,41.7828036243132,34.2193841245264,47.4122629027005,47.7334134204707,39.1455681149768,55.5499686046879,31.871775273011,58.5842779485474,33.7352681469687,74.1378788549432,47.8162920522841,32.6565127382582,57.9475010503969,67.4467434170937
56.7203039291819,39.7604451435676,42.8555947010745,74.8253451490963,41.3412673903503,21.0258971653608,61.0916564152976,68.1486574838043,1e+20,65.7039729804685,28.8781131422142,53.9503407961261,49.704782557301,46.739902242022,66.6436849677328,51.415981781196,35.5463462610713,61.4661825272578,69.5628228847808,64.8603741009921,62.2704343436342,39.7436949448922,39.2195631476764,48.2509450062847,43.6198948828681,46.6179363697054,72.5207300225195,82.8150962098475,42.4868568766229,33.2366511427634,28.4241899888453,42.3350573852963,66.258545696241,23.7809758943507,39.3921787887968,34.2022592172843,35.7277737752632,68.7081027814338,59.8925028902785,28.1277612967467,63.0916828672243,37.6204286655518,34.5397324316562,54.4665135682412,48.3385793287693,51.4831562012935,54.1867136289672,70.6645771122591,50.8207907838302,58.5924086397301,73.1339374206689,48.3470530460107,68.4890044072275,72.8713807065791,57.5673144337767,34.6089954121843,33.0083009879301,53.1564123895178,48.4918031916056,20.966009209216,55.7133740243792,49.1721148422351,43.3190520933991,10.3404704697763,21.7001779948303,69.2956014454052,28.8340485884772,52.273091089718,59.995786513423,51.8634666214459,65.5743192601886,46.3895520670983,60.2603282128253,14.8741631682307,27.0588640484484,22.567549428828,45.855099796367,25.4244110001831,70.4194621487907,73.9773965745751,65.3283366430186,39.4033538710583,47.2457562407856,54.8150687242527,57.1676310732402,61.7618283517481,61.3201056079596,47.838800165082,71.9931063684085,55.846783837474,70.9783309158221,22.1850199676983,51.9097209700243,73.6095217177893,64.5754506127598,45.1061229385747,36.4515173420218,47.7265282825909,32.8211617434373,38.514593027793
52.2983510358066,73.0253232780341,61.6148609460693,50.6312489703308,27.7574168613813,59.4837431000241,47.0314593239901,14.8975057354621,65.7039729804685,1e+20,50.1126243102045,69.7848274978137,69.4193558276063,38.3307214552263,46.4101726765976,26.7177154888171,39.3489546689514,33.9201787582489,41.8747548376529,41.003561608045,55.8255986815612,56.5876216464869,34.4204137945226,45.7368133207576,28.9433333057537,60.8575845351875,24.5774455684557,67.3386263117711,49.2220381570372,42.5327015712433,45.4591651039692,36.3612249585487,9.2629312909085,49.1615688212765,40.9784870125341,40.4609291299655,45.552992685025,11.6851913145181,76.0177785232084,43.6755790967806,31.2682939694744,76.5941725137335,64.8174368051706,55.7602726502135,56.2174988051191,35.8032987056307,12.69177155641,64.2642709207768,24.3322769952375,31.6459485129915,11.069658821123,30.8510265723135,5.54300872813581,80.0045621467573,21.5014750072252,40.5156755648646,47.9312617802641,68.2366439946855,25.2778693293834,54.0175132121179,33.4712231901294,20.8217828476901,45.7589038732319,60.3885075303514,66.6224079766545,49.3406238589775,65.1594160019317,44.1106974097521,18.3965866441959,21.4254742540629,49.0666118724851,28.9498962990239,61.2422068383865,62.3241240038406,50.5310694798275,51.6548625647655,38.4079135396133,48.129139724194,25.6685822186715,57.3435545687759,37.9414143172669,61.8774972438036,25.7858612078454,43.8228827442085,53.7945488594164,44.7592213078353,22.9427937116259,24.0448297732231,44.5236211995746,38.400427048148,54.8772575302916,63.2295983106046,28.5714872712233,77.812418878358,30.6903869887667,73.4379256720454,31.3951568889934,36.6064997730819,59.3093135113675,51.9622902069146
48.2061058589558,60.1292853294635,18.2687951664176,59.0182847991562,35.3476230473253,25.440565002328,53.1810639657811,58.8250661338243,28.8781131422142,50.1126243102045,1e+20,38.9562535928591,60.868148043411,38.3830870376779,62.4960714006428,51.9201121957122,32.4971381227598,43.2651197492717,63.3445097789465,59.9651587050878,55.1475536721305,28.0243790747252,45.3152743365441,48.3959761004542,25.1395193803725,53.9594117956495,48.7191016031582,62.816918185793,34.0248608862215,19.6509452370614,27.9084612192858,46.0086718670578,48.5501134155114,14.8761367542019,42.1385670548685,32.9477807372315,26.9444256071881,53.3070191677707,56.2142323848125,23.3217782225499,56.4048566786782,32.6918275583128,30.7023916716198,46.7865953551734,35.6979438519896,34.4932518760922,43.0272603310571,63.9743640208412,38.5380773450065,49.9962393189339,54.6082484863332,26.5649299533341,51.0137154110363,71.7437929330317,36.6935013762555,20.8780919854253,44.8495825241655,48.8809538516367,31.6999258521894,11.4292025310605,46.0602267730293,47.6716105936775,46.1977280271494,20.7801728315471,34.7131155498637,66.7224869469445,37.026515260521,31.4894958648063,38.1622841839749,49.8418250109206,51.0061167780299,29.3870730075437,55.3244760155188,19.4485287048494,13.3613917614411,38.9646821406115,44.8111650324011,15.7571290300654,59.98486141292,69.5661984373107,45.957635380891,49.3084346532733,47.6903500744229,58.4394260339787,51.8211673050896,57.8645763219501,64.3126837208626,46.0743263078979,49.8949443709719,35.9242187778718,67.9841246110924,42.9304054058196,51.3195710923721,68.0123689910136,58.6800339444968,25.1481665264547,45.5062031907759,34.9863313955754,28.9792185799949,36.3725365580771
47.5876908967025,66.8782541818534,30.3000271919261,72.5947578794932,56.6828794221683,38.9619500206325,51.0171006126828,69.6320286531527,53.9503407961261,69.7848274978137,38.9562535928591,1e+20,76.1864947513983,69.6871399311852,51.3085420053369,77.9967177365522,54.0212427510086,54.6212482974341,53.8756748414942,70.4192705976171,64.7959261580951,18.4330467180761,63.0000074686726,93.5296029448028,40.8878144230707,42.2662756329815,51.2051952552431,48.9494078879002,39.7538259890081,35.6456859185461,41.0275144354098,49.1324094579808,67.6033667409788,33.9949520315704,64.1627433118045,57.4425299671565,32.7826308641454,70.8730610167129,40.0994717966034,37.0058792665419,43.9569125819203,49.972173125214,19.0915361471789,50.2736768380723,22.5244511780061,46.0050005104759,75.0490037035407,79.2464905418107,65.7158550388602,54.4631803422204,68.4404481985543,58.1568546377706,72.4556295330187,75.9237469005203,51.4917781165995,34.0585938994105,70.7410697164778,46.0014952410157,44.2596847934061,32.4652708574176,56.5545892557036,81.4587108150796,51.7971761754862,46.2983610438842,36.2087408344477,58.9890483693477,27.4666352004602,24.6259483310412,50.1779661011392,58.8796881748988,34.9732048722596,54.9909924408939,53.021583190996,43.6036050559601,46.0070606172859,43.7552722258602,61.7263080245714,36.20382296679,76.0304747380804,57.2861018034633,30.3643105961557,72.9081482399873,56.0937594879806,64.4902639011722,45.2882733166809,41.9598795556334,83.4581913324081,49.8559308072517,41.4333195781132,40.5337536082683,66.8198436954649,39.264540371186,55.6172514284242,57.211513503293,72.2059361935839,19.8631293130353,72.9301207894572,45.4918815340336,25.7894929806598,57.214917375568
53.2073998428538,51.7067126913162,60.9838133799558,61.094255646554,67.2075883853642,55.8950752812278,61.3389397170368,63.1528763032432,49.704782557301,69.4193558276063,60.868148043411,76.1864947513983,1e+20,65.0107171442994,77.0814769724646,74.7214606768428,62.7934410142649,79.4970422878372,46.0161771063022,60.9512471184157,41.7247312093701,59.8500050836497,67.3514632378749,88.860805522015,69.4237088162765,44.5769926496304,78.1197145206901,49.0025610162992,57.7945800835919,70.5596993378112,66.1849227112272,75.9107944665127,71.7805091062752,61.280710675453,69.0824963048358,62.1083402908832,57.7018262354308,71.9796257018573,65.9989812541238,67.2252479621523,74.4012346070291,76.3482432464566,56.4440913242918,71.1263457136997,51.0495110386432,78.6073039297036,75.0136124464574,50.2148115793773,68.1198424934977,59.2164320331254,73.6910127063421,61.3103088332228,70.46837734606,47.7248531688045,73.5666180101925,66.4243834142795,60.7708540884872,69.4117376437106,70.7146833295419,59.0075062003288,77.6030137093223,67.721198783438,72.0076551950724,56.856715432339,48.7785176959939,38.7242034121179,54.361413199686,71.5695706766837,75.3062844661227,74.4616352507292,67.4502542668635,66.8446353595648,72.9505241313738,54.0627476315272,63.1159418613316,51.8359149550693,74.6958120575433,64.2565542796164,76.3086483206672,68.5016508117742,70.4635027759351,45.3390793272486,73.7462180716605,49.6246391581108,76.1709931840532,71.97034516608,62.6711612836769,76.1938983360748,66.4495629602278,65.7346699032944,67.3392891218499,46.4237980757821,77.6286362701002,61.0706021631132,58.7758838652318,71.8190653303907,55.6094708190613,62.4942388581957,55.9769504231033,63.5463174725457
50.6099076437788,51.7801798749106,51.2362051757537,58.7472585640201,25.2267950738121,49.9267765126856,63.1478483633697,45.7223306644948,46.739902242022,38.3307214552263,38.3830870376779,69.6871399311852,65.0107171442994,1e+20,62.4929501580239,32.4435745785357,25.4002927107833,20.9623524110501,45.5556105922354,59.2246795632644,67.8847348985443,57.0272880179779,34.4210640226827,53.0443096969547,35.1511420835173,68.8694906178383,41.9101274011825,71.1023246168244,55.4461402358757,44.0745540762968,46.5430894901072,35.3119246332509,33.5759364762588,40.7468440791017,30.8411202196113,41.7692455478389,51.4297610780126,28.8632916970455,84.7569715143125,43.0408703916741,57.5704397689243,58.2959221365643,49.9843027159583,50.2886531133182,59.2492537745358,29.2551183748446,47.2142974912482,70.9179617946276,26.7474868168485,37.515542492294,40.1769947061943,35.3278354968289,38.0757960876496,86.8298202671214,30.2827649854526,39.691144215233,36.3962158527051,55.8459655569302,34.4460334455414,42.5513139264158,33.5509036064165,53.1467493596343,58.2854065668561,40.1265399635992,50.380794153962,74.5213616056526,51.9382431156892,50.9777082583828,36.4029943111001,43.961195876146,57.2139946637426,18.4695179160691,37.4329898481559,42.9922757229999,41.6094043647377,46.0106516194251,31.6596613451435,41.2657337493632,18.9077795777698,68.2050903073283,51.0904313150055,50.9431320998648,44.9492152327253,41.3692191269585,54.4289662297601,62.4771937513942,55.0939019105831,43.6961065604493,47.8502119770505,49.0098139781056,62.2987844576196,54.1856699498998,46.9643849655963,92.3281191416611,52.7557229779365,61.0555870080865,27.6545760855667,40.6904801647804,50.6992006442645,30.1617056977291
32.6540234571517,77.5067113306188,47.6204353190038,47.3568067365521,61.165421302973,55.1146370784394,20.8596018293265,38.4189120861381,66.6436849677328,46.4101726765976,62.4960714006428,51.3085420053369,77.0814769724646,62.4929501580239,1e+20,54.5167012013659,69.0445234269067,52.4485829029277,52.1548773003958,35.985738240925,72.1659813388035,46.2438950561526,32.8310684313233,78.4536276798079,45.4418983334509,52.0980137178788,56.2055505128913,72.9497440192316,61.2218823700308,60.6463041126833,70.6888479839785,36.1810208004824,46.6139193750196,60.9945981955121,48.3959930993974,67.4888431397324,58.872457336599,47.4075330162816,60.0795189517116,68.5553095046127,22.0650010780072,68.7744204277459,58.0277733833523,21.1731747173942,43.7603410420287,50.809904987811,55.279473653755,58.4882421012863,42.8354403770376,66.2381504867073,49.5502642510841,46.2437355604645,50.8160440764668,78.8167487527167,45.4678589741292,52.3001574084373,74.6966031347039,34.411029162368,42.6065098402561,60.711910601845,61.3343690424775,44.3032283339235,47.4895840766916,70.4778062883911,63.1681944630552,60.226250942019,55.5062148851992,56.9012598267623,44.6407608702212,48.0114513992039,34.2548089769532,56.1891984165846,44.3250048768281,62.8283303737836,67.4293480086653,66.3999235104345,44.3205679450842,63.4519520821938,56.1343839559633,40.4541193653273,51.6012932757878,75.107343538115,47.2658153604921,49.1485260816695,16.2027555627437,21.3848185749474,73.0161031091144,32.1823486813274,69.4847923650188,49.1566093597324,43.9506627817582,56.9928792973435,32.7231470033909,58.327350502305,45.1125028288469,51.6876773063968,71.2385726653772,36.4040838260059,51.2065125711182,56.9209873425266
63.3709708963669,67.2957100045303,71.0361921233808,63.9989677633336,40.9053629831079,59.9955055006697,49.8509032292656,32.2933546113098,51.415981781196,26.7177154888171,51.9201121957122,77.9967177365522,74.7214606768428,32.4435745785357,54.5167012013659,1e+20,47.0373791203897,28.1687223124887,58.3222134581206,54.4097849071462,71.6057187424451,63.6788822476117,26.9755459285289,57.1311467166913,38.0574256914727,57.7999509492991,43.2635748607979,83.0183139603252,60.7923789835589,50.9594250864741,53.8047341660237,28.9957340344548,26.0822189153838,46.4081275142267,24.846295722768,47.3653639328835,50.4729169525163,24.9718475822992,90.365369476281,47.6622358432427,43.4643030092519,72.1251435768363,65.503923758855,64.4939178965469,64.7103156339632,38.4143714197544,19.4933230892701,63.2784520528949,31.7153451063078,56.4586003571963,34.4355266145584,41.7742663722398,26.5511579167712,96.6756415753703,29.745735314978,41.6574934611629,46.2427825866761,71.1298431072271,31.0732416282227,50.6781216571881,27.7662559280638,26.3661855149882,33.8065533693998,52.6006921709634,69.4868811852087,71.2841502640635,73.2232945563446,47.5590746634611,32.6182424813717,32.0853211364552,58.3441380105822,41.5925480340282,49.1921864037681,52.394680257586,56.5774467395477,59.7115333172052,28.3904034779599,49.854571483488,25.8386089678925,77.8515684512987,57.5877999138109,62.3145748907906,29.7975802101659,35.5068754006083,60.1317449865072,43.7108188014478,40.1553630710315,30.3085157977284,70.4387567624026,43.6434957395917,67.0803685645152,68.5417846559351,24.6350603517172,87.8125677733687,28.9276826760082,84.7558609401849,38.433165088144,35.2650965510984,68.2350558000153,46.4399862465744
53.5705106921584,54.7792046607495,44.1470187474378,62.9771558749609,11.1296892475944,40.8136558118618,67.8203946012121,50.4832496100224,35.5463462610713,39.3489546689514,32.4971381227598,54.0212427510086,62.7934410142649,25.4002927107833,69.0445234269067,47.0373791203897,1e+20,32.6931177323394,40.8663004974872,64.5625458631642,59.2929924605214,45.4236158547058,34.2083561878842,46.397233555348,28.4092106900421,64.7481177371001,44.3890618269841,63.4168546853479,42.1913099689571,25.7924732934713,23.276704386795,37.9802826319326,34.1864963446098,26.7314360067108,37.4877226223521,33.5810566057781,33.8200692180013,33.7222914633495,65.0690044802099,20.6182092932108,58.9248787566141,39.3095637288868,41.9867136543602,53.1941566830683,49.3522208924807,25.6177341674862,46.6624425992326,78.0965665728339,34.4958597808677,31.4404836697031,43.1912404848302,38.1213478803886,38.8456345176656,73.4402735719226,29.7506786763274,25.1578267719552,29.4043800602099,49.9783984367004,33.9987720483004,30.106850263489,34.1799714897211,58.4420490096301,56.2621446961782,29.4189980123901,37.4945004924974,65.2782744006024,42.4135240650351,36.2964210277923,36.063758893644,32.4897777431039,53.8868468655624,15.4160164854523,46.994309939099,33.2886031492381,23.0693668893627,28.2716945621803,44.9708532240101,22.9600038944885,39.5005526621693,71.1171806811816,37.0166480138334,34.6448616077014,32.3595017750269,51.9370037179649,57.6688256117088,65.0055134926787,46.494277085478,36.8826509516793,35.8108560422591,44.1256506005713,63.2776621845799,41.12788795513,45.4436788804195,81.8645049928004,59.9105504351864,43.5447516065274,23.9303503845002,42.7974759893806,39.7485238916692,16.4929831216742
55.7326212686955,61.4208573285896,55.2176908063943,66.5513745412771,25.5258047860295,57.5741844329952,50.6591803501371,45.3010524224541,61.4661825272578,33.9201787582489,43.2651197492717,54.6212482974341,79.4970422878372,20.9623524110501,52.4485829029277,28.1687223124887,32.6931177323394,1e+20,49.5747839385424,60.4650742280587,62.5876369424231,44.8917658805032,30.8858014944214,61.7970454050428,20.9161672603127,63.1729127943333,35.8412823983739,79.5596804182252,56.330135306836,35.1296004982196,46.4961100324383,21.7169350225677,24.5277221674004,38.7155295964593,33.7342879452928,37.5387058430715,36.8168699966752,23.4652913013041,73.9613068091963,40.2433711132161,45.1296639624904,58.665406272771,57.2487287856088,50.1853302579657,46.9629747926598,13.5886627845426,36.2027114342276,82.7167813314838,30.0843262945845,43.1445608071221,40.3757757851199,34.2790102286066,32.3078026701783,81.7643458872071,11.5561051024437,29.2181185566561,40.699269667522,59.3618318521348,18.0086472272297,43.7531432582807,26.7914687647219,60.3294811540497,57.7705814841464,52.0586924887337,65.9820914348541,72.7819193677784,66.0547341299357,35.3212560278608,19.736150145014,35.7857550680196,48.4663179541928,21.1073890797104,35.4144647772225,52.7179967254963,40.0835308798272,57.1726922975051,32.6765364214756,36.5378957140782,24.0584826963043,66.6424024056381,37.8180498972333,60.0527896821275,34.2290908744095,53.8989386435537,50.1956536353916,49.3991791206218,55.2403968981661,25.6831564621797,53.2876150811473,38.251036774365,60.4169323831354,70.8622891317255,29.4216200829655,83.1972214336117,47.2409711433436,58.2850921720431,41.5824368605115,34.588512654322,56.628836605417,32.0260036911742
42.1659247979676,64.9025342883767,56.2534167266877,35.5656235836541,36.5613576697733,57.0171987245545,54.1673518583029,38.9383155277575,69.5628228847808,41.8747548376529,63.3445097789465,53.8756748414942,46.0161771063022,45.5556105922354,52.1548773003958,58.3222134581206,40.8663004974872,49.5747839385424,1e+20,43.1707888069302,52.6314167354821,53.1220189419067,55.7358808456113,69.6987666481518,47.7252233502922,59.1729427057388,45.1165773057776,38.314354749422,62.4927013435338,58.1605719896001,50.1440313752693,57.9402689560366,45.3317935979316,52.0472584005565,62.6606273861034,51.3912706820469,47.6701775729723,42.5294240271389,44.5325678102759,45.3972105511181,43.0104956084375,80.885396156518,54.3251811229718,53.3908575693934,54.3036914346352,50.5391950406959,58.5398595765014,53.8138660192844,54.1170446534857,28.4424882567433,45.9927746108541,54.8193066619746,44.4549305780406,56.702924972861,43.5474524618462,45.38166666741,54.3760836659035,58.2123664412659,40.2949656358627,57.0278232489077,52.3024810102025,55.0557164558841,56.6601585179213,63.1789854229936,60.3764902107379,35.7939501107351,53.600292602537,53.104817788236,44.6091619924436,46.8240141851078,40.9026772089847,40.6972349444583,46.3736024989418,58.7157729368563,72.2335715386529,40.1610369199395,66.0403567260928,55.9341710566122,45.4117898353815,44.4179048402354,37.8515162954793,52.0344157627131,49.5365744173036,48.0229080172982,52.3585782815388,49.345982443917,38.7735998206153,53.3226435090594,44.5318429129637,45.1742076999992,38.2224683486688,55.607596538327,61.7860006100387,65.3689719922371,52.1736864531878,55.9606357284657,46.5860781701543,46.3407538474662,52.15422117578,55.2221599680782
21.4933331945599,72.2605290680836,42.8362509627646,41.9834608025104,58.678332820253,61.7903733181498,44.3036900500612,25.9867311677807,64.8603741009921,41.003561608045,59.9651587050878,70.4192705976171,60.9512471184157,59.2246795632644,35.985738240925,54.4097849071462,64.5625458631642,60.4650742280587,43.1707888069302,1e+20,56.961754290037,66.1338926846544,48.0393115621562,82.068346836265,58.5301870437867,68.3099857880812,59.667719565246,61.9775737433738,55.4373895679481,69.4350163725852,73.9548937121112,59.6250950062654,43.6563189886737,65.8857130242325,65.317773456461,59.2561191946321,62.8239302256856,39.1886483455028,58.8704516691005,70.1177352832212,40.7598820905922,56.8257032608446,73.6231358706908,35.075565659544,60.8292358830282,63.8416022502125,56.5208399558425,66.8841694055348,45.6938270725624,47.8822758355285,44.6069107734489,44.9670233625337,46.6869015745546,55.1965921935318,51.9054062152951,62.206465888219,60.889649691196,34.0773085116346,55.5898983330557,66.4754306451309,61.9541004472703,47.738133344891,56.6518918053186,72.0741421372262,68.5815793098875,52.1120712706615,67.6615845346964,71.4425977158239,54.0652218466035,55.3710693481323,36.6788483432506,57.8646930276591,46.5859547057611,65.4431588947836,60.8655641878705,64.8260329269768,65.6413565207299,68.2481038973011,50.6621980087808,27.000404380324,59.2394658597487,76.9464876107197,58.6353540886614,42.834147558742,35.9064241720508,38.3300793993027,53.3399129183114,55.2650702690524,56.6761564324054,54.5405240028614,26.446331447127,62.6187815830274,54.8456648282485,45.0559717094069,32.7633702316162,58.4292186236682,62.4159825026868,34.4123620493358,67.7249685090095,48.6047984422644
63.5749329180707,58.6724469673389,56.5661433598702,70.3673474062838,59.3547062883695,57.9837509708237,54.2843097567344,50.6926799224114,62.2704343436342,55.8255986815612,55.1475536721305,64.7959261580951,41.7247312093701,67.8847348985443,72.1659813388035,71.6057187424451,59.2929924605214,62.5876369424231,52.6314167354821,56.961754290037,1e+20,49.3549569513592,64.8578517268404,75.205156873883,53.6384143334781,41.6109627464327,57.8737850347134,67.9965016801388,45.5981270564535,61.9578455361568,52.6669313385855,65.7490286130103,54.2403087562918,56.7217670795471,67.0611572016334,58.4301929108427,39.4823350056066,59.7580062978312,43.3111462249251,54.5449938689778,51.633383289114,55.7694920691666,62.8546371377086,64.8919462222446,50.7757030327771,63.9682682550535,61.461290352752,83.7987721925763,62.1570645183526,51.6283864983635,63.9374160690251,66.027915858087,55.7252710676033,20.3926043359059,51.9226819169747,54.3252428565225,64.5714398314308,69.4507383577279,53.0736947558317,55.2799422725038,64.1020548003698,62.5128387694233,68.6544786053606,67.3067210558707,59.9855404058797,40.079229175049,60.7311063134031,53.4601616835789,52.049567758723,61.0617140038928,51.846341455799,56.9558366704546,67.074156024408,58.3903271403513,55.300517150939,53.9977964660423,67.5524933506025,59.687496562953,72.6763300519144,52.7038543501129,45.5731909714164,40.6186024023591,57.6697409245401,52.2590197690363,67.0097090607715,57.8687196920977,57.7070648597294,57.8297285793714,56.4186243616567,51.9660484541082,55.2963293955385,58.0417564094716,63.5252976161771,32.4398885742294,56.2430323636899,63.2691423040902,60.293654705971,44.0803800151649,52.9234166039332,60.3335001254795
44.304218819461,54.4569810287433,29.1082471625897,69.9431213529093,47.2587123862106,28.313823900235,43.8693666120494,55.4461601766626,39.7436949448922,56.5876216464869,28.0243790747252,18.4330467180761,59.8500050836497,57.0272880179779,46.2438950561526,63.6788822476117,45.4236158547058,44.8917658805032,53.1220189419067,66.1338926846544,49.3549569513592,1e+20,47.8277134391724,79.6492009766214,26.4010331854351,33.5940957221771,52.2159387081115,56.8846561449275,36.0728307674655,22.2905780443063,32.5861505378906,37.84175653161,55.1696649694251,22.3025505791157,51.7392204836921,39.6029596247582,21.6605583931093,58.6361523480274,42.1381262274111,29.756861614385,42.1532592155343,51.5583951477071,21.6785166263385,45.1891743390866,11.2919456975013,32.3549773212915,61.1720807521794,76.5974525885167,48.6582423781623,42.3655014803105,60.7899638402218,43.7033972390822,59.9031793903017,68.3387210865585,40.4941024361988,21.5759574414869,53.5253904643798,43.7012849776348,33.112392689971,20.7487053428072,50.3409524217134,67.5699204380843,55.3170465916378,32.689719917549,32.006284673034,50.6178668883023,29.8847331920583,26.2677055361438,38.8919974548012,50.6133898478393,35.3732337249697,41.8224247874909,54.9049279607156,27.4949566082809,35.0271180299445,33.9212229478737,48.2268932718332,25.5851542689587,65.8797182153417,53.9647419592637,29.0004077792304,61.5017352369704,47.7565954318031,59.0691661753718,40.5001979847968,41.8296303199641,68.1694410787278,39.5783533199696,45.6637666956869,36.7896037698865,65.1661847601024,35.5525110626477,41.7520450879118,53.9986020267546,64.8587295863164,21.1662003587363,55.3024079958685,39.3803818647026,24.1202256052066,53.2414530780629
48.0883737496835,53.3990688898543,55.3837141995153,66.5053357572839,30.7715799334242,48.4388013977359,39.6221003736654,40.7157697883125,39.2195631476764,34.4204137945226,45.3152743365441,63.0000074686726,67.3514632378749,34.4210640226827,32.8310684313233,26.9755459285289,34.2083561878842,30.8858014944214,55.7358808456113,48.0393115621562,64.8578517268404,47.8277134391724,1e+20,60.0263263864366,28.2917788482452,50.51340405192,48.8213115855397,80.6759854480017,57.060903498333,32.4930946685816,45.7949674223436,16.5647255281638,28.0975536978691,33.2034723519733,25.385664628019,36.9489729974981,36.4280403836913,30.0469164231601,74.6434035562786,42.9722165954939,41.1607969131647,55.5151954689605,52.1008401102933,36.5076518155788,50.9957898998447,27.8109157853634,29.7378345223668,71.3843722053058,23.1536409965565,61.637081755496,40.7086562708345,35.8524644828162,33.6461597009953,78.6478764581507,25.8136583725571,33.2971349562062,31.7284404325664,44.3701388699633,29.4577349617835,37.7983270530945,40.3767018270378,40.5998669575226,43.5536622346701,39.3519093435383,55.2846270279488,68.3919119031123,55.6709142754358,48.8807816140664,32.7226470365442,29.8969752174974,46.9586091902821,30.0720025308826,34.2542849598696,42.3289950586322,39.5995465947917,51.4599147969064,28.1976026567843,30.4473840936016,37.0322881287268,61.6062633228411,52.2402030001728,49.0540414336198,26.5080521620033,45.2456465793002,31.2370827499772,31.7667761849475,49.114143078348,17.4091442597334,69.3060946395579,47.1168446633134,50.9987638667374,51.8774127881604,16.9305291657131,68.9526351441398,42.509347085227,59.2888221598157,35.6610854328504,38.2391263110862,48.4833557587744,30.3858599583759
79.723824477327,82.6705833797535,82.797684721027,69.9037320850422,37.3612571022478,57.2858930236069,84.094658119724,73.6144662790526,48.2509450062847,45.7368133207576,48.3959761004542,93.5296029448028,88.860805522015,53.0443096969547,78.4536276798079,57.1311467166913,46.397233555348,61.7970454050428,69.6987666481518,82.068346836265,75.205156873883,79.6492009766214,60.0263263864366,1e+20,40.8906562465909,84.2765475554272,52.8381079507534,105.596824480584,80.1408405105915,43.1093450234456,35.2870259095403,66.040686449814,53.196846050661,44.0525806430538,65.010127215927,31.9981681663829,53.9270013887786,57.9910282870053,99.5906078788265,39.2825097182865,85.4650258816602,55.7273463893154,67.9382981842578,85.9476002322159,67.2476939263732,51.6477052334741,38.3488660721568,81.0445894192619,49.3015139400386,50.9158888207369,48.9909627427293,40.2529935805315,50.6586338376978,97.7316720574358,48.0770184501076,43.3198208138917,38.4818310681034,86.2508248395622,38.4476668651188,45.9308516230156,76.9717800410447,45.877754041868,73.8258936504239,40.4410949652425,63.3457458855209,92.209915756919,72.3028316192818,62.1982365112569,45.1531095617256,60.5670512058753,71.2887813076068,42.0256951610564,77.206925455884,50.3132093915385,45.2194898284078,66.7759180884245,64.9424193935002,46.7445642159442,71.4438258347512,84.3583309422858,74.0027732666398,63.7777356371257,62.408701276569,53.4013849160054,87.7351727046029,95.2647933254389,39.7356222831525,59.2748320427,69.4749426451112,48.9145881241557,92.0752945040095,73.6081721121012,68.4697821120107,101.879564848157,56.4204759984106,87.9577269330539,32.7954120666142,46.627299923751,71.5233532216002,45.2963690047856
46.2236853944205,65.4348910624413,38.6294311921666,55.3465225996071,20.0617207678079,40.9610059676462,45.9879547462901,45.7208127320498,43.6198948828681,28.9433333057537,25.1395193803725,40.8878144230707,69.4237088162765,35.1511420835173,45.4418983334509,38.0574256914727,28.4092106900421,20.9161672603127,47.7252233502922,58.5301870437867,53.6384143334781,26.4010331854351,28.2917788482452,40.8906562465909,1e+20,51.1027491419156,32.0397919401094,71.3994249538328,46.1069095960631,14.1486497385356,32.6424071690602,29.9004770406435,29.4142214723692,20.3976075762986,42.8670229528779,21.6649753456787,22.5870295037964,34.824385026358,62.1548267358349,27.2601544770139,44.3048594270309,49.174582044703,41.1511003542299,41.3546926383471,30.0592869813677,9.47408590029667,22.1800784132229,73.3740882140445,28.0866730587851,36.3024293455894,35.4383966317562,18.9493822057637,30.7149012019544,73.3672906435296,15.7047692384953,11.4523648482459,34.7651591097591,44.8115108525623,10.6232953105453,25.1139897076187,42.0004979730522,44.3170196190315,51.1857783402958,33.9395265793249,50.7495956817615,63.178871524561,50.2080029991894,23.3677252997875,15.9212696900204,38.7170905430552,37.4969630915129,17.3900918947559,40.1081414542498,36.810828137376,25.8640874953066,49.1038231622279,41.9341208293783,19.9397513159386,44.4700016828123,60.4615399906426,28.2903442760127,58.110995583918,36.8711183347733,51.5383603068558,41.4041375101079,43.0230188143243,41.4894281160233,27.3613722564957,44.4365073514841,21.5357923945502,59.1195181390124,55.6083188950231,31.0607541960491,70.0213867829017,46.269124798748,39.2472449529388,37.2113375035187,26.0213158740148,40.5428106116102,27.6351842438113
56.8829472263669,51.1478351852699,57.423752754085,52.9274899096515,63.9940258457251,44.145112894552,52.1825508144997,51.2781699482482,46.6179363697054,60.8575845351875,53.9594117956495,42.2662756329815,44.5769926496304,68.8694906178383,52.0980137178788,57.7999509492991,64.7481177371001,63.1729127943333,59.1729427057388,68.3099857880812,41.6109627464327,33.5940957221771,50.51340405192,84.2765475554272,51.1027491419156,1e+20,53.8452667614533,66.9415894887752,38.5245855906992,51.8131956318351,53.9441571992358,52.1749995091628,62.5817107466359,48.9953360573615,56.7621152239272,57.192351567025,37.7089643462642,65.9090761755136,47.134317261625,51.729620661934,47.1005052604392,78.526805369391,38.3569947673746,54.5158659954962,35.5193658771618,60.139950785247,58.3752575473257,67.7645171395524,51.1552338290188,57.995270036202,59.7529928375926,59.5763450177353,65.2521740544403,56.379223026276,56.7938969964018,48.7119387464799,65.6848993715567,56.5191825693361,48.8872720593692,47.6091735089011,69.2675626965176,51.8405194463689,59.8573696780787,52.084335712065,40.0854407445051,36.8174525639965,40.3776784382313,34.6501284522293,53.5825164621623,61.8396922391404,50.0922832375825,62.2764643646065,58.391143681575,44.2687003624148,61.4736668805117,45.8463391761756,54.0217772056502,53.7171248882141,74.0992601048487,49.6228857735665,40.940092506417,45.9575514373666,57.7680752871696,55.4569227923761,50.4938425359926,45.8647408703036,59.9261015157668,46.4951319702867,51.3506217292049,38.8255505110467,63.178841889198,38.5517122380895,43.1368760800885,40.8174381767839,65.7757500154996,59.051314756224,63.6896377364571,43.858744219579,39.7797729794134,72.906138758332
53.8359534368074,83.8920161719272,66.5634512117734,59.1017913514373,31.5090030751561,68.4048223565065,59.177986621218,35.8863074280659,72.5207300225195,24.5774455684557,48.7191016031582,51.2051952552431,78.1197145206901,41.9101274011825,56.2055505128913,43.2635748607979,44.3890618269841,35.8412823983739,45.1165773057776,59.667719565246,57.8737850347134,52.2159387081115,48.8213115855397,52.8381079507534,32.0397919401094,53.8452667614533,1e+20,65.2600200763487,44.4077657213225,45.9863889378851,46.5800838276105,49.797829697098,27.8035404500313,47.5880178030677,55.1552288607576,50.4858303191614,50.9178456013168,29.6876175970422,72.189676732601,42.6827295545227,39.5423139747598,78.7370693423759,51.0455918089983,54.4958318323056,47.0858241479945,39.0464755228357,32.1759475636556,62.4940097028408,36.8391437865147,37.8692481224083,20.6679394365094,36.1007582255851,26.1262041745107,82.8931519646733,25.0999772736886,37.4625032133842,58.0851788785284,64.952899161973,23.432029146581,50.8030485752414,43.7755675920821,34.9077438166317,58.555388708634,65.4313561250601,60.8135245164815,55.1135204169844,56.4114124003254,24.2829120021198,17.4942398546963,38.4868649142208,49.3375098802857,33.9649829191947,67.2776743779843,65.0719872585478,55.8737131039031,56.9046414884253,53.0099338569848,52.1833791313746,35.6477855405189,56.7461455428803,22.6489684070229,70.0143262202712,42.2881347353501,63.3278751851399,53.7001900715507,58.5837310113708,43.8047897979817,38.1436999694249,25.458397463693,20.3199370536951,57.8695953168742,63.6370574207134,46.4499546954134,85.6464081957555,50.2053546783401,64.7518105112374,48.3248398823079,43.8614521830766,52.8404445734753,56.8500915721567
51.4628697871956,72.7387143026053,52.3437683340054,55.2497923108253,67.278394563366,69.8961477242628,68.6894207954544,63.6460466631905,82.8150962098475,67.3386263117711,62.816918185793,48.9494078879002,49.0025610162992,71.1023246168244,72.9497440192316,83.0183139603252,63.4168546853479,79.5596804182252,38.314354749422,61.9775737433738,67.9965016801388,56.8846561449275,80.6759854480017,105.596824480584,71.3994249538328,66.9415894887752,65.2600200763487,1e+20,67.3117880177679,67.8393883687699,61.1021355981864,80.3980134486657,70.8788874940393,61.7300560266893,84.1192871539135,85.7521770193615,57.3931515993861,67.5559144906044,56.3762851650879,56.786059767033,62.0006425756657,77.5482014222041,53.995596155844,73.7274607784628,59.1414854027595,77.3769895265429,83.1762122687878,39.4331041408459,78.9269037526993,63.3352958593206,70.1835863868893,74.9539770216645,71.1749856156977,68.3566831133016,72.3878009684921,63.5923892506256,88.5638378440826,65.2199515529321,71.6874752357757,64.098362406969,69.3116457627557,78.702901000714,61.7640496978431,77.7696975538041,63.2428321869942,41.3637462727649,56.2681237020556,64.446556237359,71.493374373988,70.0286036082878,49.7031330658908,69.4332729424551,74.2050341044768,76.9976438446422,77.0096391319585,57.0731432143407,86.319272865745,64.9975412084478,69.4838718578829,56.2658192294515,57.1179307557646,70.7489532276428,71.9378230364622,60.0746818569946,71.3560326084976,64.7573302848724,78.744741975181,76.7849495139108,53.3496150184079,65.8835852764508,60.2186617991917,63.8002503606549,81.7103887837596,64.9435777236337,70.6008802763811,56.3786068446235,85.1906474970817,62.8276549561958,55.1747658470573,79.0446347841179
45.0787868897766,66.9920691402591,32.7436367532095,67.7377913271918,42.3107781009711,39.7555403633244,56.0128449512019,43.1462848304713,42.4868568766229,49.2220381570372,34.0248608862215,39.7538259890081,57.7945800835919,55.4461402358757,61.2218823700308,60.7923789835589,42.1913099689571,56.330135306836,62.4927013435338,55.4373895679481,45.5981270564535,36.0728307674655,57.060903498333,80.1408405105915,46.1069095960631,38.5245855906992,44.4077657213225,67.3117880177679,1e+20,47.2420647402127,36.8101961489851,55.0820378188871,49.5538542737206,46.5903565661897,57.6230226321581,58.6497821395053,48.2597319271767,51.5694555315985,50.0607011188357,36.2931757271897,41.0022921526832,43.1709765794083,42.2820562885819,52.1001931311032,40.1402592830212,53.4269938463748,59.4526925654626,83.355275846804,46.6683253519077,53.9741710666721,45.9176678051669,44.4433317793733,53.6589460514693,63.4349401718051,47.7839010029224,47.0309075091738,64.866984064857,47.1405625427505,49.2587038663281,42.6934203250715,51.0865113886812,59.595086980081,56.9339686844501,48.6263654395675,29.5053779978716,39.0478792364255,30.0421589005589,34.2430922472378,43.1506590430478,51.3242048668388,52.0755768225711,46.9627333774032,67.5389186816753,43.0123591610851,34.4538223701079,31.8387365924503,57.9956295599063,46.6807758980107,62.9208677044873,63.8058676011118,30.2728817332076,50.1972958838676,48.7518661215136,64.3959936482058,53.5947239408471,53.927827513892,77.65924758267,49.249194755523,44.2876845930515,41.4820727050189,67.9237573335173,29.5446587231082,52.9603662029788,54.3889145696329,58.5418318911108,41.3487564699563,58.75773578012,46.2858492281981,28.3657719459281,51.0815496389078
50.2582773799462,55.4351771678862,33.6031291973648,68.4513988710497,28.3319088481132,31.0908751861732,58.0610655583335,60.9573911725087,33.2366511427634,42.5327015712433,19.6509452370614,35.6456859185461,70.5596993378112,44.0745540762968,60.6463041126833,50.9594250864741,25.7924732934713,35.1296004982196,58.1605719896001,69.4350163725852,61.9578455361568,22.2905780443063,32.4930946685816,43.1093450234456,14.1486497385356,51.8131956318351,45.9863889378851,67.8393883687699,47.2420647402127,1e+20,25.7622166853698,34.559875101526,43.0195914132929,9.48267359581355,43.0293195496412,21.4702640098123,17.8501566702024,48.8093993500524,63.7857024273976,21.9741367850426,56.7849276829265,42.8469061972188,28.5503084968281,49.3233314581505,25.5671774555597,21.3406034244172,36.53119752582,73.7151257315653,35.978739767413,44.9376356848028,49.5816192113169,27.4764090552002,44.6451042675824,81.6971992914231,29.3365902038789,13.1267481347137,34.8761982672264,47.6113788614776,23.8795938540262,13.405107336283,46.5025973842456,54.0220667403387,55.3352010370228,23.1565173175982,38.901400571885,69.5873635986244,38.9614041465366,25.5226896899595,29.4951391671991,42.9341187032749,43.9291491413961,25.5499313821082,49.0466136638514,26.5323721707978,19.7268261442261,41.904900615861,42.8146220189859,8.79358071232717,58.7257414637176,68.0037763372499,36.2788729632095,53.1086270892817,40.3093653106202,62.6362631929955,46.9439310982296,54.0433028649994,49.2515413863185,34.1782122586713,47.8085806319997,33.8628811571479,70.7482886249236,45.0506970279168,39.1878810262742,72.3151790440531,60.606582057486,31.3501447415192,38.7503038109931,37.3992541743301,30.994137073392,33.0629148379621
62.5355602473028,58.5823496151365,45.8646593965231,72.2109710543727,23.4393004393401,36.5089687615571,63.3658663496457,55.0417998322761,28.4241899888453,45.4591651039692,27.9084612192858,41.0275144354098,66.1849227112272,46.5430894901072,70.6888479839785,53.8047341660237,23.276704386795,46.4961100324383,50.1440313752693,73.9548937121112,52.6669313385855,32.5861505378906,45.7949674223436,35.2870259095403,32.6424071690602,53.9441571992358,46.5800838276105,61.1021355981864,36.8101961489851,25.7622166853698,1e+20,39.0833568987128,45.3243855217441,19.9800516695583,45.9680624357414,37.6325841215646,25.7504780180083,47.6424128022021,52.1866856446166,7.59890545530501,53.0203128392201,27.3635647860844,37.7499127811074,62.9967166136656,44.820770624291,39.60073793703,45.8037911056462,68.7631413934016,51.9620791540979,39.4507128783044,51.8983381035326,46.1966066965228,47.418276975105,64.2063902421034,39.9743763223414,25.182650442661,42.8074045648591,58.2804349530447,34.7657463767762,19.6097114441963,38.4097431955605,48.5859089398535,49.378251575369,21.342457065414,34.7811365181936,58.7866182606236,38.3385332777342,36.7051052477712,39.9722019801926,35.4959141900101,54.8092835490829,35.5268686517357,62.5893372450907,27.134011295221,25.2943283367632,21.5750818121865,48.4686537924159,21.177108082272,55.6635753691698,71.0435020314757,38.4912013217126,35.0469295403726,33.922306853357,60.9615291695743,63.0757766076613,60.1740009683767,46.8819116031861,38.1069931667126,47.0335994347713,42.9552946900888,67.246065168916,38.9257663007285,47.0096568005517,69.1608259279332,58.5569279012864,41.9384703547477,36.7324801565943,46.1348383348206,35.9990759849256,35.7181057338521
59.0956758156622,48.7076867890508,58.4856686814349,73.5081608393275,34.9303912661793,44.8749849547219,39.2529718664689,44.9450582920561,42.3350573852963,36.3612249585487,46.0086718670578,49.1324094579808,75.9107944665127,35.3119246332509,36.1810208004824,28.9957340344548,37.9802826319326,21.7169350225677,57.9402689560366,59.6250950062654,65.7490286130103,37.84175653161,16.5647255281638,66.040686449814,29.9004770406435,52.1749995091628,49.797829697098,80.3980134486657,55.0820378188871,34.559875101526,39.0833568987128,1e+20,27.9605160425031,33.3651876458019,16.8745721291399,39.6520490556166,30.36754733361,26.7486123380146,64.9178110825809,37.4667078128253,36.6063841746869,53.0182097072512,49.4845035990154,45.883470268275,44.3180369485127,21.7391698912485,35.8732485167969,72.8892151142766,33.4086895232105,52.0452123489523,44.1040401693069,44.8267995199182,35.5874259558158,82.7290308498913,26.0489446499864,31.7137524791941,40.7346067862086,56.3806398126934,29.8891149846917,35.638916436202,26.442953396686,51.2890925942258,39.9474468966354,41.8586449813444,53.5358322892914,71.2870833305711,52.6551358423998,45.0230760288006,33.585822916046,22.1761455206827,50.3830059069256,32.2132371888736,40.0438932095292,40.7833700734265,41.2896661466258,47.2654866819329,18.5138468894525,30.4846237447427,32.4522091431365,67.643773104426,46.8869497762481,45.8830913008568,19.1319805126514,50.9817769885841,39.8583912669656,35.5814952091718,52.8971817826734,12.8049360103329,64.0141272190291,50.3838179378752,61.363579058948,51.0241848498825,17.3206074338567,78.3487565823636,47.9178226684761,54.7653274816569,39.727845902686,43.1713364840046,44.3224213917111,38.5130449567267
55.2392724699372,69.0315451163029,61.2309613002946,57.1143038931848,25.131196327774,62.5904302405676,46.2887848976148,21.0954507417522,66.258545696241,9.2629312909085,48.5501134155114,67.6033667409788,71.7805091062752,33.5759364762588,46.6139193750196,26.0822189153838,34.1864963446098,24.5277221674004,45.3317935979316,43.6563189886737,54.2403087562918,55.1696649694251,28.0975536978691,53.196846050661,29.4142214723692,62.5817107466359,27.8035404500313,70.8788874940393,49.5538542737206,43.0195914132929,45.3243855217441,27.9605160425031,1e+20,48.276131762128,37.8098636269149,41.3724746288159,42.6927576479675,7.71083533614292,77.0306446991257,42.6011410523647,31.7053292229072,71.1488120724253,66.4187158292023,55.3876342797984,55.2935351889852,27.3771736299674,17.8617395535271,69.9169399559901,23.5375050215237,35.8115549358368,18.6289463685018,36.0591866321305,8.34732393997317,79.4584057380608,13.8582982987661,39.4309061714671,42.3499601207002,67.8749006086798,25.2442731796401,53.1508059787441,25.6151693046256,31.5237942321886,47.448024836072,60.097795204358,69.7133752668708,55.114887123352,68.3038815289773,43.8111748518971,18.8071245689237,18.0375342299665,48.5277164621867,24.1784272089727,54.4385471132759,62.0527113099961,46.1590977363484,54.3698394864629,36.4861006767211,46.1467692298335,19.335536111515,61.6729248830259,35.9618011388261,58.134706593757,18.8468494841188,45.5608575985599,53.0344715419158,45.239644461822,32.6420972441249,16.8340288802542,49.0310837418092,41.6790908149502,56.876300903516,66.2605075025052,24.0152976081459,78.0493307952654,33.2616155753648,71.3528413626091,32.5027966882256,37.319411339557,62.163401997208,42.9214248108092
52.4432259829494,54.5530194616426,31.4378545199724,65.6092160122613,29.145318652817,26.5931888365883,53.5740303789434,60.6863911071232,23.7809758943507,49.1615688212765,14.8761367542019,33.9949520315704,61.280710675453,40.7468440791017,60.9945981955121,46.4081275142267,26.7314360067108,38.7155295964593,52.0472584005565,65.8857130242325,56.7217670795471,22.3025505791157,33.2034723519733,44.0525806430538,20.3976075762986,48.9953360573615,47.5880178030677,61.7300560266893,46.5903565661897,9.48267359581355,19.9800516695583,33.3651876458019,48.276131762128,1e+20,36.7343544533785,23.962271862012,17.5064765449018,50.9196996950569,53.1924090252835,13.3097308678993,55.6133864378043,41.347012112085,26.0272337253729,50.5998241760545,27.0147419330464,28.0220933730293,40.9204234692814,65.8887952487872,41.7049594733048,44.1702771577492,55.062694187456,32.8801341436261,50.8097079330916,73.0243631644901,34.9215686979944,10.4385359397023,35.393524893842,50.1105232107481,24.7278867157709,6.57272995246803,43.1465812497274,47.9787724684416,45.4649805129825,16.2162178648848,35.8327285965874,67.4262212774631,38.19714669787,27.7078332105189,36.6071772900061,42.6784118832522,45.9886928670386,30.9177468449222,47.9982324983726,16.5889703757287,23.3418025639566,33.4864662334809,40.2632811067657,6.38772434392994,56.518471009909,70.0173598052342,39.3183154215975,47.4567034586733,38.599931720956,54.298285275068,48.151898143556,52.1282179835038,48.02430919356,38.0369778653235,50.8283473279681,33.446371411637,65.8583834960805,42.1639666604457,44.4833968449556,71.334573739345,55.9645702782074,29.0308691505609,36.0835675147943,37.7761647425686,29.3236922109173,33.1438571441999
66.6141170815346,50.9982983870299,59.6924948830771,67.5778441901837,40.6261005070382,40.0562599674595,40.8322290612747,45.9868600608823,39.3921787887968,40.9784870125341,42.1385670548685,64.1627433118045,69.0824963048358,30.8411202196113,48.3959930993974,24.846295722768,37.4877226223521,33.7342879452928,62.6606273861034,65.317773456461,67.0611572016334,51.7392204836921,25.385664628019,65.010127215927,42.8670229528779,56.7621152239272,55.1552288607576,84.1192871539135,57.6230226321581,43.0293195496412,45.9680624357414,16.8745721291399,37.8098636269149,36.7343544533785,1e+20,48.3051260973342,45.9770351278769,35.623302244084,75.1541614469084,44.8091399595528,42.1629593094243,52.1496004102918,45.1681739730648,50.0624041945521,57.593739835371,37.6580489174461,38.7315096243947,65.516402358803,32.2681421422038,54.387409253681,47.3033349196838,49.513145763479,38.0689735092597,87.5768920944373,39.9087692952521,42.2409573401359,48.7947777115794,64.0204615410039,40.7474694940249,35.6633150264183,24.8040358916158,40.6367373831257,33.3439378449364,41.8617362046283,46.8777139089169,76.1233432945954,49.9382772667295,50.8423413164608,46.669400351512,22.5075608848078,64.6439748505405,33.8023182252496,51.317247089091,35.8576754252735,43.2277673919236,48.987607638211,9.04913586658246,35.9209706055022,38.3485738917249,78.7321874460029,61.6157176392573,37.4821447389262,21.7972832238179,39.0268696570975,46.1543210923961,43.6474328461455,56.652372266444,26.0293060874792,59.3132850378128,54.2394953616077,74.1427301254819,47.5698145821522,25.7562549089538,90.6343884439371,47.1692795676082,56.7382169237309,35.336697471372,48.6017759137993,42.1061017983901,41.4720687314162
51.6844711012276,52.2344017876991,45.5201865185015,64.3586337846898,25.5552157140854,33.7897548390469,64.8835096488872,59.2719468719224,34.2022592172843,40.4609291299655,32.9477807372315,57.4425299671565,62.1083402908832,41.7692455478389,67.4888431397324,47.3653639328835,33.5810566057781,37.5387058430715,51.3912706820469,59.2561191946321,58.4301929108427,39.6029596247582,36.9489729974981,31.9981681663829,21.6649753456787,57.192351567025,50.4858303191614,85.7521770193615,58.6497821395053,21.4702640098123,37.6325841215646,39.6520490556166,41.3724746288159,23.962271862012,48.3051260973342,1e+20,21.9968451276042,44.8894839837232,64.0526015597073,34.7125463072751,61.2700804727815,54.8020593263758,44.3923594728146,53.511113945657,43.2499749723612,27.613872294909,32.7763212444052,80.2030125760176,36.7214348071668,41.0476467801153,49.616343473714,26.6126580145949,42.8651345497426,70.7471524082752,30.7530963211054,24.6327019275805,14.5784757463976,54.8772256529535,26.7962850239248,24.2648662373937,56.890808969376,49.1249547244747,61.9949705207966,25.6069848152774,48.2246770900175,67.2313558167676,51.1649671750341,43.1050619614972,32.5381287129349,47.1799321900269,55.3988382110524,25.5028282423613,60.8611833730853,27.2207244324587,31.5654871267195,44.8952520873881,52.7741683240431,21.1867544595314,58.2850614271319,62.685706680418,48.3981496574463,52.7737354275281,45.4212753857701,56.1485481105882,53.2971398275098,61.6528088101846,31.1634951261339,40.4639966698934,63.8213763326581,32.7372888319389,63.9674941348864,52.0191813138948,46.5710465618958,75.5500957207982,55.7022170742852,49.7213418595345,26.4275053651281,38.6675730290369,44.9704083520441,31.6570472555621
57.7883142013094,43.8653849306048,40.3310735896713,64.2884288768803,31.8185726650063,36.0149365530351,50.8681982983764,57.0996489473168,35.7277737752632,45.552992685025,26.9444256071881,32.7826308641454,57.7018262354308,51.4297610780126,58.872457336599,50.4729169525163,33.8200692180013,36.8168699966752,47.6701775729723,62.8239302256856,39.4823350056066,21.6605583931093,36.4280403836913,53.9270013887786,22.5870295037964,37.7089643462642,50.9178456013168,57.3931515993861,48.2597319271767,17.8501566702024,25.7504780180083,30.36754733361,42.6927576479675,17.5064765449018,45.9770351278769,21.9968451276042,1e+20,46.6726353019798,34.8470727806196,22.8246638277447,52.2463404208982,46.0653552147816,36.5268523878998,56.1598409072712,29.7595646950837,26.8743802857881,39.5681378885351,66.301035686971,44.8514946602608,43.7996006617796,53.6150530485454,41.0999352467538,44.2240334713309,42.8526817272672,31.3141220176851,18.2818917740572,29.8063950308884,56.6566819186318,28.4710393235447,18.7108486160401,44.7805586736804,53.3438856983521,51.0817968084084,27.3888518301379,44.9322147687914,55.4640468254821,44.0650168293453,32.7556798320694,35.1577766501315,38.413696757059,45.4382393789019,34.6049732462223,55.197900258154,29.102987586119,27.5744056365281,37.6854885675797,47.9497807793476,15.5073084448007,58.6070309842318,52.9625592066939,39.2811593175748,41.3932306222786,35.5846841909873,59.708675226116,53.4199555662493,48.1768711839988,34.5717156437799,32.2412547925134,52.5783869731684,35.6288586093669,53.9598038344367,48.1309930062818,36.6633225089791,43.4228319321282,56.955783557816,36.1884594758655,40.7437988352018,42.1840445114509,36.750525827469,40.2610003839281
52.6062876216939,66.2425445231535,62.1085955880014,54.9021969839158,25.0810161256939,63.7521946384372,50.0567341123996,20.2808522072155,68.7081027814338,11.6851913145181,53.3070191677707,70.8730610167129,71.9796257018573,28.8632916970455,47.4075330162816,24.9718475822992,33.7222914633495,23.4652913013041,42.5294240271389,39.1886483455028,59.7580062978312,58.6361523480274,30.0469164231601,57.9910282870053,34.824385026358,65.9090761755136,29.6876175970422,67.5559144906044,51.5694555315985,48.8093993500524,47.6424128022021,26.7486123380146,7.71083533614292,50.9196996950569,35.623302244084,44.8894839837232,46.6726353019798,1e+20,77.0056047510593,45.2196586353106,36.1519789761812,74.4591328329997,67.4484361364092,57.3695804836014,58.4860849025331,28.7178058905618,26.4485707326523,67.2809675873686,23.7978616788979,34.4705504778592,17.3836573187185,36.8837972679363,12.7035799180455,80.453196157169,19.1259709989091,42.3202013962921,45.7860550925005,68.2848202763941,30.4286593472624,55.9690001275653,25.9583897080237,35.8169479583431,50.0054440928175,62.8117668695972,70.8178156671661,54.7639413262664,69.2227256078409,47.8383716511847,23.9174906046496,19.275767348131,49.3653256959913,24.5085708118791,51.5443830751472,63.2342310900582,51.9661440917694,52.069678496538,36.5529337528637,49.099466310714,13.8168372291656,58.6889258170035,40.086153239444,55.9442324414097,23.4912360692399,44.9632038258187,54.9520991785775,48.9413961289305,35.9538737924386,23.4364773658445,48.57266862247,46.6376476224976,51.9180678266601,67.1102426775526,29.3128284555213,79.8907936193965,33.5136460667931,74.4831454359116,32.134940402227,38.874091518872,63.7359687093123,45.6041101152743
63.1700315743444,59.8560051734641,43.9729198341085,65.2383072312554,64.0223940704589,51.2571607609632,54.0173441493157,63.1458453488443,59.8925028902785,76.0177785232084,56.2142323848125,40.0994717966034,65.9989812541238,84.7569715143125,60.0795189517116,90.365369476281,65.0690044802099,73.9613068091963,44.5325678102759,58.8704516691005,43.3111462249251,42.1381262274111,74.6434035562786,99.5906078788265,62.1548267358349,47.134317261625,72.189676732601,56.3762851650879,50.0607011188357,63.7857024273976,52.1866856446166,64.9178110825809,77.0306446991257,53.1924090252835,75.1541614469084,64.0526015597073,34.8470727806196,77.0056047510593,1e+20,49.0366456015356,46.4318242780804,40.5548183754908,56.9571526000705,50.8156987455311,46.547106237273,69.4487937169314,86.3447009793879,71.4691775117442,86.9575417102975,56.9823829511372,82.3795836954387,76.4995172371198,78.3959220746329,44.1318019920961,66.7209787964023,55.0690814362292,72.0751074005867,59.7488660281158,62.8674434421772,52.2372966617982,59.9674234799608,82.5933801149709,55.8230392843079,61.9408320953768,55.0767930184793,53.7856143672016,50.0729531948824,56.058115557135,68.2263682378575,60.0798746535106,42.4522920486726,71.2658349691169,50.4108933529811,51.9660316277181,63.168326684715,39.5372855800874,79.8552671788341,55.8972694721711,84.3888303515683,49.7027389630889,46.127793335337,50.5131902615619,57.326764816414,70.9573660920751,52.557220982462,54.3562137031422,64.7277975661188,63.9700587493077,57.6555446187264,55.9436053857099,50.7522845499459,54.5930845049916,74.2456094248453,43.3551104285608,69.2782077875327,33.9858715905322,84.2160117653454,56.545139705972,44.8736090079953,67.1021087109272
58.3719838313015,59.5080492095037,39.553052699144,66.7887260812092,21.3921584659401,37.0684879846438,60.1422594211442,54.1527019755305,28.1277612967467,43.6755790967806,23.3217782225499,37.0058792665419,67.2252479621523,43.0408703916741,68.5553095046127,47.6622358432427,20.6182092932108,40.2433711132161,45.3972105511181,70.1177352832212,54.5449938689778,29.756861614385,42.9722165954939,39.2825097182865,27.2601544770139,51.729620661934,42.6827295545227,56.786059767033,36.2931757271897,21.9741367850426,7.59890545530501,37.4667078128253,42.6011410523647,13.3097308678993,44.8091399595528,34.7125463072751,22.8246638277447,45.2196586353106,49.0366456015356,1e+20,48.5579033450958,33.6215832085481,37.2562733834439,58.9729389138268,38.4430672471508,33.9506347122282,41.9464223521597,66.4455051801246,49.558191047756,36.9294756166488,49.7885160157711,42.4704975576719,45.544593151826,67.4677557515131,33.5561457824646,17.6353785300507,40.0782001342765,54.283746085467,27.2425874162183,17.9789950708458,36.4152463189591,46.4210534618031,44.7432580319988,22.4005224327402,37.5113639492544,59.3054830912886,41.2895577534383,28.565996442484,33.5476559964319,36.6568266326884,50.6049996058925,34.0098820958805,55.6565740624574,26.0576277178252,25.1553355617088,24.0849716626321,48.293645177553,16.2465392673842,50.7477964676714,70.9930536779053,31.655335679177,37.7969795691163,32.5101949557243,60.3844599471479,59.2336925910187,56.0875405545064,45.044076944071,35.7185420639484,43.7533599111181,35.1792995609378,65.171123563212,40.6299812837352,46.7700204578488,74.0592498500906,55.9909721739245,38.5304090191526,36.8109614556085,41.6123782447236,37.5271553636413,32.3979974877712
42.965212329905,71.8327521722448,48.7736270860632,50.6813649435282,48.9287823686658,49.553291584515,21.8753454465256,26.7498036528216,63.0916828672243,31.2682939694744,56.4048566786782,43.9569125819203,74.4012346070291,57.5704397689243,22.0650010780072,43.4643030092519,58.9248787566141,45.1296639624904,43.0104956084375,40.7598820905922,51.633383289114,42.1532592155343,41.1607969131647,85.4650258816602,44.3048594270309,47.1005052604392,39.5423139747598,62.0006425756657,41.0022921526832,56.7849276829265,53.0203128392201,36.6063841746869,31.7053292229072,55.6133864378043,42.1629593094243,61.2700804727815,52.2463404208982,36.1519789761812,46.4318242780804,48.5579033450958,1e+20,65.3236742678485,50.147652904823,36.5030941604428,46.5661816576042,50.1096930266745,40.8687716528874,64.1768622381541,44.4613701123621,48.8822862462287,36.6551211612759,50.8096440430848,32.4852849867771,63.8870544006031,35.567603922828,50.7324112141881,70.057352139298,46.7377504813481,37.9380723680339,55.5904337387272,38.3508467869245,44.3413577079906,32.7808573140322,65.2650636141081,54.3889155254653,40.8706194435244,46.1364965627105,45.3860347778596,30.7476245157952,30.9777656314782,37.8426460463488,50.0580299482123,54.9370743133939,58.0527494525601,61.5040941094573,48.2252384139071,39.1422385183795,57.734581078666,44.5551827741572,44.1954017663629,35.2916312557464,64.5935199959669,29.3580999616265,45.2195394269362,30.1566605426779,26.2113453220821,60.1023639557977,25.2736870452569,54.9059514683803,42.9025305300789,50.7481633306869,45.218297349715,31.1946578541105,55.7186355893904,36.5826165561058,49.4104472367634,62.5203097677588,33.5941648501188,42.5953881003289,56.4402372078464
57.2443990533239,59.3689586912199,33.9820021377701,85.6159820012569,43.7138518933068,39.8977232554642,61.3667314555863,83.039101043759,37.6204286655518,76.5941725137335,32.6918275583128,49.972173125214,76.3482432464566,58.2959221365643,68.7744204277459,72.1251435768363,39.3095637288868,58.665406272771,80.885396156518,56.8257032608446,55.7694920691666,51.5583951477071,55.5151954689605,55.7273463893154,49.174582044703,78.526805369391,78.7370693423759,77.5482014222041,43.1709765794083,42.8469061972188,27.3635647860844,53.0182097072512,71.1488120724253,41.347012112085,52.1496004102918,54.8020593263758,46.0653552147816,74.4591328329997,40.5548183754908,33.6215832085481,65.3236742678485,1e+20,49.674192941077,53.190359312693,60.1909550966619,52.791917035013,65.3979381073243,80.4909800446074,62.8359988918392,81.2243328787985,83.8199501580282,53.270452247687,74.3540272184347,50.1680456333354,56.5556267166688,48.1530018554537,54.99531375241,51.1012002717678,59.5087860961633,36.8502927322112,55.0337861581059,74.5634146010626,51.5192094417085,37.501392666223,39.6260792481058,86.8973262325424,41.5794670540107,62.6650014065568,62.7022011488014,58.007653246962,59.755702006096,49.9215949463269,55.1087206791782,38.5539283117884,22.254523023373,45.3523425319844,57.607535513861,36.1026153604341,80.8665752282877,59.6363687242331,74.0583921169999,40.0803933363486,55.2192997876273,66.7348048391944,57.1883678755389,64.6285113834523,86.7231982410603,56.3618177445432,80.115548511713,67.6809586586033,57.5667157580162,46.8272565739251,64.1879696924398,52.50276750401,64.1662176458513,33.6941297659892,60.6231021291339,45.8582405969696,40.8073464569788,33.1332861575898
46.4042876022103,53.1545974341181,32.7947231401751,60.9917815372948,49.6299744683755,20.2115841974752,54.4622916588545,67.5380486816811,34.5397324316562,64.8174368051706,30.7023916716198,19.0915361471789,56.4440913242918,49.9843027159583,58.0277733833523,65.503923758855,41.9867136543602,57.2487287856088,54.3251811229718,73.6231358706908,62.8546371377086,21.6785166263385,52.1008401102933,67.9382981842578,41.1511003542299,38.3569947673746,51.0455918089983,53.995596155844,42.2820562885819,28.5503084968281,37.7499127811074,49.4845035990154,66.4187158292023,26.0272337253729,45.1681739730648,44.3923594728146,36.5268523878998,67.4484361364092,56.9571526000705,37.2562733834439,50.147652904823,49.674192941077,1e+20,52.3238143815942,26.8982941059877,46.8610413880632,65.417481705243,65.2043563896665,48.5332445654609,47.0163055852897,62.3543998359416,49.4308366500333,67.9373174190047,76.1242364849355,54.6861427984652,33.878364916618,53.7236733929097,47.8386457604281,46.0635908122789,21.9924699481357,56.988365857625,63.2211750027785,51.833912422074,28.68543939841,16.9798523309882,58.0132230805693,14.2037755793587,28.7622937871007,53.0048794717112,57.5716079959785,46.0253387408511,42.0838456577221,62.555087182051,26.2529162194709,39.001507859555,34.7446603965106,46.7674323105147,28.1544004701376,69.4444992024054,65.3626707188544,39.9057938843597,55.069598891495,56.160699367207,50.5763386234734,45.9754008750189,53.8290821697347,67.6753645304052,51.4726304480035,36.6862144190832,40.0289803890588,77.4013723900805,22.6676307192396,55.3124781185136,67.7895703444053,68.6062377410171,26.2320460134967,46.1385876568106,42.5918702049666,13.6611324392893,47.4366985605805
26.1282319294411,69.5741351331494,31.4241687649768,59.7435014832852,48.0048720852302,46.8525448003277,38.2252718460509,49.2885814913437,54.4665135682412,55.7602726502135,46.7865953551734,50.2736768380723,71.1263457136997,50.2886531133182,21.1731747173942,64.4939178965469,53.1941566830683,50.1853302579657,53.3908575693934,35.075565659544,64.8919462222446,45.1891743390866,36.5076518155788,85.9476002322159,41.3546926383471,54.5158659954962,54.4958318323056,73.7274607784628,52.1001931311032,49.3233314581505,62.9967166136656,45.883470268275,55.3876342797984,50.5998241760545,50.0624041945521,53.511113945657,56.1598409072712,57.3695804836014,50.8156987455311,58.9729389138268,36.5030941604428,53.190359312693,52.3238143815942,1e+20,44.3387563209291,45.9915352880069,63.6578880039194,83.9980396513913,40.8529067091822,65.6349734863443,59.4939393029109,36.8122784188055,59.0942843518663,71.9182756571796,43.7869971737999,46.9203648282705,57.2689053238225,17.0930684458502,38.8948681025667,48.8786278978236,69.4018550347349,70.645403496209,56.6556192583591,57.3524867816759,51.8089883174707,66.5866524927444,45.4985002717137,52.1353398436615,43.4805946688698,57.7070875772655,34.0331071201688,42.3713829881322,37.8863881426145,51.0685510427164,51.1963441262274,58.4769966955369,49.9212937565329,51.8305943125058,64.3500351370006,31.8811123116177,48.1543977105321,64.3651368549987,56.5780932877007,54.2679976486127,8.59413762985426,28.9585057353088,84.1869288373986,42.5997648133885,66.2503040319912,45.7148101828295,31.8441247431973,47.9903419920797,41.4988158736698,52.5961103400798,58.7580815018524,31.9409897635359,62.332686433613,38.6323701921937,42.6409998309864,42.5765173784721
40.1670968604559,57.1390350868396,36.1193282839102,62.9661776882886,51.5813302809715,38.2837766853933,43.04912014534,56.1517977091375,48.3385793287693,56.2174988051191,35.6979438519896,22.5244511780061,51.0495110386432,59.2492537745358,43.7603410420287,64.7103156339632,49.3522208924807,46.9629747926598,54.3036914346352,60.8292358830282,50.7757030327771,11.2919456975013,50.9957898998447,67.2476939263732,30.0592869813677,35.5193658771618,47.0858241479945,59.1414854027595,40.1402592830212,25.5671774555597,44.820770624291,44.3180369485127,55.2935351889852,27.0147419330464,57.593739835371,43.2499749723612,29.7595646950837,58.4860849025331,46.547106237273,38.4430672471508,46.5661816576042,60.1909550966619,26.8982941059877,44.3387563209291,1e+20,35.6557658784817,61.429582870576,63.4201837892789,50.7456334404823,43.8336910241639,55.125221523746,38.9632346604287,58.8516441219903,67.2841786118451,42.5082947989647,25.7447587116979,56.7828298732455,43.4937566626346,35.6093859848211,29.8732869779931,56.5951063099315,63.6815807223006,61.0539525614848,42.8507338389527,37.2061732437405,52.91807750271,34.6783628407262,24.4742297615359,40.2940884879515,55.3490856661186,36.9872449496081,44.5582338729705,54.5491965587804,37.5851425019111,44.1430856277903,44.3470553440424,53.9732951048751,31.9653619758625,65.0229667569628,49.9855932831421,25.8422217938696,69.2803372405751,53.1248106150025,58.6504998109226,40.5814160359479,45.9500558748917,67.423629614919,44.951276145511,39.4696656092153,26.1464620903905,59.7532973244152,40.1497435036198,47.3593266016056,56.8700610604778,58.8778425831745,26.9190183649374,58.3352722299845,43.368595971131,28.3599789460947,56.8318188546802
50.4030666068758,61.2617429429308,46.6159588241467,62.2018074121262,20.2570523265934,46.7124748422863,53.0065901507244,49.9473367575826,51.4831562012935,35.8032987056307,34.4932518760922,46.0050005104759,78.6073039297036,29.2551183748446,50.809904987811,38.4143714197544,25.6177341674862,13.5886627845426,50.5391950406959,63.8416022502125,63.9682682550535,32.3549773212915,27.8109157853634,51.6477052334741,9.47408590029667,60.139950785247,39.0464755228357,77.3769895265429,53.4269938463748,21.3406034244172,39.60073793703,21.7391698912485,27.3771736299674,28.0220933730293,37.6580489174461,27.613872294909,26.8743802857881,28.7178058905618,69.4487937169314,33.9506347122282,50.1096930266745,52.791917035013,46.8610413880632,45.9915352880069,35.6557658784817,1e+20,34.6936947683639,84.4938640011157,27.9661796728225,38.8408391267238,42.7151951016206,26.4266057135662,34.5618433029252,83.5414843838168,14.5721802934994,18.215436174648,34.6440172220555,48.7074394514633,15.980427780673,32.9121705615892,37.0210496376612,57.7040425531317,60.9549345451222,41.6493492701562,56.4646686573921,71.8900852877381,55.8227400121778,30.1213989637753,22.360770031656,36.0234661213831,40.5667766660242,13.433241644105,34.485150010162,44.5100650799056,30.478698977673,53.348920580544,37.4314192682747,25.9290099821809,37.5661348120977,64.4019783915241,32.1566086554728,53.8723793584308,34.2490975727263,57.0664355167758,46.0776716205255,47.5903925917027,52.1351367000583,24.7912164610625,48.4894890346485,31.6112627717258,62.5944748096543,61.6525611355129,28.5302975815297,79.1149667035454,52.5346081722542,45.4446949973103,38.6593534404934,31.3490293043953,46.4236567049842,25.3443625637465
68.9516000707936,82.9419884189529,69.6542561442462,63.9362210651057,33.9680778002689,59.188399699889,48.2167116726494,33.0928779152685,54.1867136289672,12.69177155641,43.0272603310571,75.0490037035407,75.0136124464574,47.2142974912482,55.279473653755,19.4933230892701,46.6624425992326,36.2027114342276,58.5398595765014,56.5208399558425,61.461290352752,61.1720807521794,29.7378345223668,38.3488660721568,22.1800784132229,58.3752575473257,32.1759475636556,83.1762122687878,59.4526925654626,36.53119752582,45.8037911056462,35.8732485167969,17.8617395535271,40.9204234692814,38.7315096243947,32.7763212444052,39.5681378885351,26.4485707326523,86.3447009793879,41.9464223521597,40.8687716528874,65.3979381073243,65.417481705243,63.6578880039194,61.429582870576,34.6936947683639,1e+20,63.271990624735,30.1934151136705,49.7850010490006,20.6492330121647,27.4850015904362,12.1498235994521,95.2023181853615,19.9571017589529,33.5410035979731,41.0935276538043,75.8288712940438,18.4060403036955,45.9054337760156,42.1500706220844,22.316381072305,37.7182660949821,49.6945308170236,69.6333719284966,68.503478404866,71.5372089134453,39.5742807739005,17.014450554989,27.0442031629023,62.0567601936846,36.4637067703952,64.6062711261111,55.2775920872697,43.0621163672016,66.3966779860037,37.5361768164014,41.0309541430218,42.9475643184007,73.4770868391806,50.236144339643,66.9397074322753,26.4720764056504,43.0445218687928,60.4095438121319,45.0263488582377,25.1662401005888,23.1838917169618,61.7712322763746,34.5648292066603,71.2852802845402,71.1175662791533,22.270050533752,96.8299257924621,25.9549838144895,80.3182641722196,34.4900691530658,34.5216109752525,64.0651263675624,43.5563891803741
64.635910808473,77.9721888810822,86.4411521597526,53.9529977236652,74.4831928794746,72.7790870517028,56.4510214187423,67.9902093128351,70.6645771122591,64.2642709207768,63.9743640208412,79.2464905418107,50.2148115793773,70.9179617946276,58.4882421012863,63.2784520528949,78.0965665728339,82.7167813314838,53.8138660192844,66.8841694055348,83.7987721925763,76.5974525885167,71.3843722053058,81.0445894192619,73.3740882140445,67.7645171395524,62.4940097028408,39.4331041408459,83.355275846804,73.7151257315653,68.7631413934016,72.8892151142766,69.9169399559901,65.8887952487872,65.516402358803,80.2030125760176,66.301035686971,67.2809675873686,71.4691775117442,66.4455051801246,64.1768622381541,80.4909800446074,65.2043563896665,83.9980396513913,63.4201837892789,84.4938640011157,63.271990624735,1e+20,72.6579310909223,74.2027133563261,64.3800894945474,69.2139977797767,65.9023035092548,87.980992416435,73.7155483303552,67.580767594684,80.0973823547141,88.4821186575772,65.5019170992,64.0186826543144,68.1773865990877,60.2761470427852,46.5394913215612,75.2147631001408,68.8728627548613,64.9304013689717,69.4197267253616,67.3334275953015,69.4365557829309,62.8650245432845,76.4513236552774,74.7978071715066,88.5032884020775,71.8085975675793,79.8666791319802,71.3961432052609,68.0846139228329,72.4299951773801,68.8400200816102,70.314097827815,75.1683305694847,66.788486560057,65.7093583692667,60.8117807153569,79.9784777176869,78.0876773451499,68.0245696076485,67.4753401056869,66.8249236559895,57.9471221154218,69.3880821047791,74.5745061011115,76.3908605153914,95.7342758280725,64.1394244029501,84.7968198059238,74.06826260655,69.8796133250196,67.0842424901615,82.6586795377941
43.7314099999646,67.9400810110771,47.5070297440845,43.0959952147279,30.6625586525172,42.2431195464675,52.0830668217543,28.4272673796451,50.8207907838302,24.3322769952375,38.5380773450065,65.7158550388602,68.1198424934977,26.7474868168485,42.8354403770376,31.7153451063078,34.4958597808677,30.0843262945845,54.1170446534857,45.6938270725624,62.1570645183526,48.6582423781623,23.1536409965565,49.3015139400386,28.0866730587851,51.1552338290188,36.8391437865147,78.9269037526993,46.6683253519077,35.978739767413,51.9620791540979,33.4086895232105,23.5375050215237,41.7049594733048,32.2681421422038,36.7214348071668,44.8514946602608,23.7978616788979,86.9575417102975,49.558191047756,44.4613701123621,62.8359988918392,48.5332445654609,40.8529067091822,50.7456334404823,27.9661796728225,30.1934151136705,72.6579310909223,1e+20,39.2414594991025,24.0245942422322,25.7732410758394,27.4133568176528,93.8093513885645,21.8627203452462,38.9176736322334,38.2320083795658,48.8627389142533,29.1687122061885,43.859746783459,46.4491645501539,36.2634444512623,56.0549501812265,49.6777889824495,51.7899383630873,57.4611463742875,53.3464138364169,42.9709692260385,24.9873857322188,36.2611765064102,47.7307150551216,19.9088849713103,49.8685025662219,44.8828571548148,38.3228134080109,55.7346927347612,30.9592329101795,39.8056242513641,35.1208775831124,56.869450588562,48.6142813001627,51.9895412543912,38.5549889453479,42.3224509973574,38.0943116437168,46.1814079251532,46.5021191169763,28.0992043212447,45.268733416165,41.4652913143938,58.3250905154244,51.8976890221337,27.4543270674137,76.473647630919,44.5318871480963,60.7262320309351,27.273387878864,27.2896180674965,46.5203313050389,39.525337689308
48.0655111727085,58.9952487458216,58.8384182595367,41.8261850174493,29.2428812457874,39.4261722491785,66.4065863055318,34.9265910089102,58.5924086397301,31.6459485129915,49.9962393189339,54.4631803422204,59.2164320331254,37.515542492294,66.2381504867073,56.4586003571963,31.4404836697031,43.1445608071221,28.4424882567433,47.8822758355285,51.6283864983635,42.3655014803105,61.637081755496,50.9158888207369,36.3024293455894,57.995270036202,37.8692481224083,63.3352958593206,53.9741710666721,44.9376356848028,39.4507128783044,52.0452123489523,35.8115549358368,44.1702771577492,54.387409253681,41.0476467801153,43.7996006617796,34.4705504778592,56.9823829511372,36.9294756166488,48.8822862462287,81.2243328787985,47.0163055852897,65.6349734863443,43.8336910241639,38.8408391267238,49.7850010490006,74.2027133563261,39.2414594991025,1e+20,34.7568482463296,39.8038734664687,36.654725269706,70.3372602313283,36.0480245131086,35.5096092167557,55.280624017269,69.65230927728,35.6876338019643,46.6746198515941,45.3512202755428,39.9130328238779,64.3978459277623,54.4144660517464,48.3071489142906,46.1477836616796,46.1541247205987,41.0365935288834,37.802423640278,40.3259362348681,46.3470374559802,22.4382264632705,69.8997662488984,41.578393657687,60.9019267505162,31.452336780864,51.3775280040905,48.9091666611954,43.1799244555207,45.7716862208332,28.9556111039636,57.287060581436,45.2791548723574,53.5083395994118,64.8842672497203,64.7948381962455,33.3766784110044,45.6867931396349,24.5442067131017,39.4475078886665,52.7778602740875,46.5647970384208,56.3131115608031,81.4647133208201,56.4852906949523,61.419592856463,31.9066865167152,41.6015673572115,42.9015096775136,63.5132151115387
50.0025729393803,79.7760416245193,66.9370219448848,50.7153724063198,34.8222580101158,66.2804416859919,57.1976390212584,23.5042408348398,73.1339374206689,11.069658821123,54.6082484863332,68.4404481985543,73.6910127063421,40.1769947061943,49.5502642510841,34.4355266145584,43.1912404848302,40.3757757851199,45.9927746108541,44.6069107734489,63.9374160690251,60.7899638402218,40.7086562708345,48.9909627427293,35.4383966317562,59.7529928375926,20.6679394365094,70.1835863868893,45.9176678051669,49.5816192113169,51.8983381035326,44.1040401693069,18.6289463685018,55.062694187456,47.3033349196838,49.616343473714,53.6150530485454,17.3836573187185,82.3795836954387,49.7885160157711,36.6551211612759,83.8199501580282,62.3543998359416,59.4939393029109,55.125221523746,42.7151951016206,20.6492330121647,64.3800894945474,24.0245942422322,34.7568482463296,1e+20,27.7868648859867,16.7366383369466,87.9185981815757,28.2169264551305,46.2647021650007,56.4641674013315,68.5699378881522,30.8179268875628,60.0265537483752,43.6664386218823,24.9949814309202,54.6363228723621,67.6277425936729,65.3846808124082,52.4130779260246,63.000547479076,40.8815122141578,20.2775951495927,32.371784675759,52.0563195521085,32.3733311544807,66.9580837667148,68.3873521984907,57.3781957991523,61.5636171982593,44.6895410421283,55.2723703158662,30.9941292316326,54.6105515009248,36.1616119851336,67.2977072086878,36.5587098419289,49.7866369539128,55.1540670030245,54.8972747922287,30.0588682807836,32.8134297755105,35.9308760060821,34.3229580004172,56.0574279275458,63.0812610873505,38.6407437273856,83.7722259851723,37.3650816964573,75.5939434167085,36.5340805899065,42.4448493595778,56.5095285454251,59.3462790456879
32.5586842956087,68.4179883820383,35.304775879637,42.9229357479473,29.1463440801188,46.5086149467424,53.0290752984379,44.848009864746,48.3470530460107,30.8510265723135,26.5649299533341,58.1568546377706,61.3103088332228,35.3278354968289,46.2437355604645,41.7742663722398,38.1213478803886,34.2790102286066,54.8193066619746,44.9670233625337,66.027915858087,43.7033972390822,35.8524644828162,40.2529935805315,18.9493822057637,59.5763450177353,36.1007582255851,74.9539770216645,44.4433317793733,27.4764090552002,46.1966066965228,44.8267995199182,36.0591866321305,32.8801341436261,49.513145763479,26.6126580145949,41.0999352467538,36.8837972679363,76.4995172371198,42.4704975576719,50.8096440430848,53.270452247687,49.4308366500333,36.8122784188055,38.9632346604287,26.4266057135662,27.4850015904362,69.2139977797767,25.7732410758394,39.8038734664687,27.7868648859867,1e+20,35.907738261952,79.6889083962493,26.9296973991736,29.3223921383768,37.6785536729919,39.7813893993372,24.2933221382367,34.5841511311624,56.6450748945601,42.017017064223,62.0158723001913,38.333118484499,52.6461000678962,66.6233072091787,55.096284091633,36.9374388648186,22.5406735279575,50.9064080833279,42.9080044669254,24.7687405803698,48.0776113612608,42.4151108637829,29.3524512979644,60.8754627659438,49.670408417879,32.3830901731701,48.399052079126,50.0025141353045,42.5465562196439,64.489945922958,51.1938369062492,54.8012343730109,41.493367874852,56.171309196383,47.1497144463378,40.1837488144026,43.8651172656503,29.8327241040555,53.7244276660561,58.9494185112633,42.8004714816129,72.054461543844,36.613340012395,45.3679969890121,40.515151784845,28.9103601978546,47.5976891683879,31.7480359998755
58.1110041045355,73.9723686434291,66.3367462778433,57.4968935423971,26.3088141277114,64.4569630292643,45.8096349801578,18.219912356583,68.4890044072275,5.54300872813581,51.0137154110363,72.4556295330187,70.46837734606,38.0757960876496,50.8160440764668,26.5511579167712,38.8456345176656,32.3078026701783,44.4549305780406,46.6869015745546,55.7252710676033,59.9031793903017,33.6461597009953,50.6586338376978,30.7149012019544,65.2521740544403,26.1262041745107,71.1749856156977,53.6589460514693,44.6451042675824,47.418276975105,35.5874259558158,8.34732393997317,50.8097079330916,38.0689735092597,42.8651345497426,44.2240334713309,12.7035799180455,78.3959220746329,45.544593151826,32.4852849867771,74.3540272184347,67.9373174190047,59.0942843518663,58.8516441219903,34.5618433029252,12.1498235994521,65.9023035092548,27.4133568176528,36.654725269706,16.7366383369466,35.907738261952,1e+20,80.5086526084322,19.5889747947241,42.0425121965801,47.3673563188501,72.7173681150812,26.7133841831299,55.6735636029446,29.6644505477632,24.5238032217862,44.4386435124822,63.2516758934623,70.517818314381,53.8089461600147,69.0286503388392,46.1295112392714,20.0157713010877,17.7066618413738,52.8681245124056,28.5583973324752,61.7082790293853,66.3032411005842,48.5109556817724,55.4526070328666,37.4197122352165,48.2594274635104,25.7711859807983,63.9088328106531,40.0604474022941,61.2469436174409,21.979245917851,43.8618726658717,57.1861711519785,45.1863923938049,25.6116475030165,23.3868215646158,47.71552410161,41.1515297209994,60.1201526213608,67.5855815305253,26.838144153127,83.0291566014043,31.5450438663002,75.900403510331,32.2599183849537,41.2625025761307,62.4445075527335,48.9557973316227
63.3295228027961,57.0794816171897,61.8083809003745,75.608392630456,74.1891160884828,75.2391948814552,59.5588129111752,69.6150776735284,72.8713807065791,80.0045621467573,71.7437929330317,75.9237469005203,47.7248531688045,86.8298202671214,78.8167487527167,96.6756415753703,73.4402735719226,81.7643458872071,56.702924972861,55.1965921935318,20.3926043359059,68.3387210865585,78.6478764581507,97.7316720574358,73.3672906435296,56.379223026276,82.8931519646733,68.3566831133016,63.4349401718051,81.6971992914231,64.2063902421034,82.7290308498913,79.4584057380608,73.0243631644901,87.5768920944373,70.7471524082752,42.8526817272672,80.453196157169,44.1318019920961,67.4677557515131,63.8870544006031,50.1680456333354,76.1242364849355,71.9182756571796,67.2841786118451,83.5414843838168,95.2023181853615,87.980992416435,93.8093513885645,70.3372602313283,87.9185981815757,79.6889083962493,80.5086526084322,1e+20,73.4370571590683,74.6742471005731,70.3049994822263,71.9473864517449,75.9054203935063,72.9778758431417,81.20386679694,91.4707771996434,83.0803192805451,79.8012471910932,69.9326342527219,54.0912755386087,72.529618304993,78.2736165212114,76.3123291712261,81.6127704302428,53.3708191711617,82.1133267284897,70.4074781624197,76.3435081536215,65.4861957304155,70.279855509976,95.1667244277329,73.847416171282,88.4787665882454,49.5103633687116,68.6336316628416,59.6397178989125,79.759385512952,62.3002961918149,75.6310377012812,69.3580055283046,58.7602766249692,81.1740005060019,71.0910873872807,64.3003179852207,51.5404766681908,65.2304962131441,85.1209230288474,26.1750623124003,44.1033343347166,70.4018325012495,88.2946060101768,50.4080819406225,67.46852604672,55.9872628802405
50.3101769236015,68.8055921817194,49.4288300989669,57.1430911065661,20.0038720499974,53.0992456473105,44.8698840737159,34.2524621576968,57.5673144337767,21.5014750072252,36.6935013762555,51.4917781165995,73.5666180101925,30.2827649854526,45.4678589741292,29.745735314978,29.7506786763274,11.5561051024437,43.5474524618462,51.9054062152951,51.9226819169747,40.4941024361988,25.8136583725571,48.0770184501076,15.7047692384953,56.7938969964018,25.0999772736886,72.3878009684921,47.7839010029224,29.3365902038789,39.9743763223414,26.0489446499864,13.8582982987661,34.9215686979944,39.9087692952521,30.7530963211054,31.3141220176851,19.1259709989091,66.7209787964023,33.5561457824646,35.567603922828,56.5556267166688,54.6861427984652,43.7869971737999,42.5082947989647,14.5721802934994,19.9571017589529,73.7155483303552,21.8627203452462,36.0480245131086,28.2169264551305,26.9296973991736,19.5889747947241,73.4370571590683,1e+20,25.6217500043407,32.9562630625865,54.9921735927832,11.2246795094928,39.7522141116138,32.4789013185424,41.4225607444389,48.4090739937216,48.0039854389792,63.018385344113,60.7030336530105,62.7578466127652,30.2144071729466,7.86933582168029,28.7006868491694,43.4908894917806,19.5059964587717,44.0324048688403,50.6160903231518,33.3279730272265,51.6643774886077,38.6073314971781,32.9797547667626,28.0684768066132,58.1722729834603,30.3309273606596,58.2376434909627,26.8442181690279,49.5175072434166,44.2905342894219,42.9827431229021,40.5984847519892,15.6326220912706,46.9444206988183,28.5315237675467,52.8583181156661,65.1522801681392,24.2645292880733,72.7684932134282,38.4806534356381,54.549668941144,36.0002098225284,28.3369289827411,53.3043460214157,31.7420012509386
49.7723031086692,62.844709937664,37.4846148858207,58.138588492609,26.0391635739772,34.3347975017477,50.5004156051639,51.7226842025675,34.6089954121843,40.5156755648646,20.8780919854253,34.0585938994105,66.4243834142795,39.691144215233,52.3001574084373,41.6574934611629,25.1578267719552,29.2181185566561,45.38166666741,62.206465888219,54.3252428565225,21.5759574414869,33.2971349562062,43.3198208138917,11.4523648482459,48.7119387464799,37.4625032133842,63.5923892506256,47.0309075091738,13.1267481347137,25.182650442661,31.7137524791941,39.4309061714671,10.4385359397023,42.2409573401359,24.6327019275805,18.2818917740572,42.3202013962921,55.0690814362292,17.6353785300507,50.7324112141881,48.1530018554537,33.878364916618,46.9203648282705,25.7447587116979,18.215436174648,33.5410035979731,67.580767594684,38.9176736322334,35.5096092167557,46.2647021650007,29.3223921383768,42.0425121965801,74.6742471005731,25.6217500043407,1e+20,38.075999971613,47.8455630032091,15.4161045346352,14.5375880474087,42.564587317119,45.5430075440731,46.6542135505159,27.2241806508674,44.1998228840793,64.5197591846528,44.9724130282226,19.0619043873017,27.3733527531089,40.5795508466951,39.1785110718458,26.3183707175642,44.2986760006081,27.1074139801057,29.2311008210312,40.3973418638817,41.9885495828115,15.4353719352154,49.6228384028953,63.3510882162494,28.2202142925213,53.8433058177854,38.205991319195,51.538931029004,45.1353380837992,46.5525820686427,45.3986046725512,32.4766149030958,40.6589150006094,23.9333566686031,59.3579407972728,50.6557113004028,39.8547416014744,71.0597643261761,50.7064052300817,34.8801261309031,38.1072363185604,31.008860196646,35.2590780373645,33.9996205368152
55.8948093048185,46.2045981146885,55.613367132664,75.3397587713048,26.3588499023147,46.6259938632563,73.4414413080136,66.636109604768,33.0083009879301,47.9312617802641,44.8495825241655,70.7410697164778,60.7708540884872,36.3962158527051,74.6966031347039,46.2427825866761,29.4043800602099,40.699269667522,54.3760836659035,60.889649691196,64.5714398314308,53.5253904643798,31.7284404325664,38.4818310681034,34.7651591097591,65.6848993715567,58.0851788785284,88.5638378440826,64.866984064857,34.8761982672264,42.8074045648591,40.7346067862086,42.3499601207002,35.393524893842,48.7947777115794,14.5784757463976,29.8063950308884,45.7860550925005,72.0751074005867,40.0782001342765,70.057352139298,54.99531375241,53.7236733929097,57.2689053238225,56.7828298732455,34.6440172220555,41.0935276538043,80.0973823547141,38.2320083795658,55.280624017269,56.4641674013315,37.6785536729919,47.3673563188501,70.3049994822263,32.9562630625865,38.075999971613,1e+20,59.2369177692875,35.7522392622629,37.6983428148736,56.0361117626472,58.2902814122376,63.9154500561336,27.4124398839145,49.5311431731585,77.8411020460091,56.1382247357374,56.6823115774642,40.2762090555019,48.8323259050344,64.2879588667971,31.262054897797,58.6280268674765,36.8936336971739,32.6267933748158,46.8235713694455,58.0483870942122,31.6709973862344,52.1866364575786,66.7429641764359,61.6209099474756,48.3512376950095,45.567432589529,55.4915980355276,60.5032737223731,67.5186049348031,36.0274015767029,42.8285461686182,77.2707968284391,46.1335327503075,58.3853817162305,52.6627944300361,48.376597895472,79.3555828654351,59.4352791985308,62.0550777453618,23.2953778177605,48.8182618057142,57.5018087799351,25.1877853986788
14.7701862823366,66.8327269634514,31.4630756166097,54.4694539706546,45.5773966467081,50.9472732367817,51.9717028196551,57.0338577096964,53.1564123895178,68.2366439946855,48.8809538516367,46.0014952410157,69.4117376437106,55.8459655569302,34.411029162368,71.1298431072271,49.9783984367004,59.3618318521348,58.2123664412659,34.0773085116346,69.4507383577279,43.7012849776348,44.3701388699633,86.2508248395622,44.8115108525623,56.5191825693361,64.952899161973,65.2199515529321,47.1405625427505,47.6113788614776,58.2804349530447,56.3806398126934,67.8749006086798,50.1105232107481,64.0204615410039,54.8772256529535,56.6566819186318,68.2848202763941,59.7488660281158,54.283746085467,46.7377504813481,51.1012002717678,47.8386457604281,17.0930684458502,43.4937566626346,48.7074394514633,75.8288712940438,88.4821186575772,48.8627389142533,69.65230927728,68.5699378881522,39.7813893993372,72.7173681150812,71.9473864517449,54.9921735927832,47.8455630032091,59.2369177692875,1e+20,49.4893215860076,49.2183666631932,78.8950614368298,79.7331698919105,69.4306025106076,56.4077396209436,45.0378638049323,66.6710229266185,41.9938180150065,54.256760606851,53.6624271693982,72.9042964595401,25.4022409816002,45.9979337114417,36.9451844854953,54.3402152838746,47.0603845098317,57.0826506934888,63.1059971134101,52.7646207339049,74.4062613020447,25.879720831704,49.7501364133935,66.4954918400149,71.0984368399127,57.3959273023882,18.5959079144372,33.8899271088401,92.4917621793816,55.0249400579737,67.6850704286859,49.3150743315689,35.3891480865644,40.4600827687942,50.9542528672748,45.8692011923453,63.4687300563835,32.233274567525,64.1125240511401,34.6007768226461,45.609789391998,39.0603459889902
46.562128258967,73.0578427063196,47.2111541471355,55.0108291209947,22.525250175128,46.4231583568303,44.5818546200595,38.7267413853833,48.4918031916056,25.2778693293834,31.6999258521894,44.2596847934061,70.7146833295419,34.4460334455414,42.6065098402561,31.0732416282227,33.9987720483004,18.0086472272297,40.2949656358627,55.5898983330557,53.0736947558317,33.112392689971,29.4577349617835,38.4476668651188,10.6232953105453,48.8872720593692,23.432029146581,71.6874752357757,49.2587038663281,23.8795938540262,34.7657463767762,29.8891149846917,25.2442731796401,24.7278867157709,40.7474694940249,26.7962850239248,28.4710393235447,30.4286593472624,62.8674434421772,27.2425874162183,37.9380723680339,59.5087860961633,46.0635908122789,38.8948681025667,35.6093859848211,15.980427780673,18.4060403036955,65.5019170992,29.1687122061885,35.6876338019643,30.8179268875628,24.2933221382367,26.7133841831299,75.9054203935063,11.2246795094928,15.4161045346352,35.7522392622629,49.4893215860076,1e+20,29.4049401967441,41.8618190522447,34.9152358677053,47.6051309260076,40.7203384700432,56.1824284963411,62.0322283793433,55.9328518149445,22.4296304366075,12.1261461560829,34.947918112872,38.4512542105357,22.9651754704934,45.822480912589,41.9459032201218,36.1270940356791,50.3975718227648,39.0498650148942,29.0225593685396,37.7340163578242,56.6186425304667,27.8320834735049,61.3559208580961,33.4608201588432,47.3680212108685,39.2964398579908,38.0992646306941,37.57394904178,22.8342680931,44.2331951245282,17.2893266377705,52.5188561248691,61.688103636625,27.5609301559342,72.280751257969,40.1038867114157,46.6037391413665,35.7372650001762,26.1081311643979,46.3174899614042,33.6838846972771
51.9020395675499,52.6466329315696,29.7526156474544,67.6287865996382,32.9371023662444,20.7763717127487,53.5185027776976,63.1149719892369,20.966009209216,54.0175132121179,11.4292025310605,32.4652708574176,59.0075062003288,42.5513139264158,60.711910601845,50.6781216571881,30.106850263489,43.7531432582807,57.0278232489077,66.4754306451309,55.2799422725038,20.7487053428072,37.7983270530945,45.9308516230156,25.1139897076187,47.6091735089011,50.8030485752414,64.098362406969,42.6934203250715,13.405107336283,19.6097114441963,35.638916436202,53.1508059787441,6.57272995246803,35.6633150264183,24.2648662373937,18.7108486160401,55.9690001275653,52.2372966617982,17.9789950708458,55.5904337387272,36.8502927322112,21.9924699481357,48.8786278978236,29.8732869779931,32.9121705615892,45.9054337760156,64.0186826543144,43.859746783459,46.6746198515941,60.0265537483752,34.5841511311624,55.6735636029446,72.9778758431417,39.7522141116138,14.5375880474087,37.6983428148736,49.2183666631932,29.4049401967441,1e+20,45.2283580736894,48.0896912995563,45.8501389380943,13.7718677304198,30.4734884216728,67.7585495462088,31.7662264602476,30.6292399124153,41.397183702085,43.9497059203876,48.1724518747421,31.6189420252684,53.460472100704,12.4760172302637,20.0294393748922,31.3762818392042,39.3318627818708,9.13536664796373,62.5135397907145,70.8977979133888,42.8481533958435,44.5332229075119,41.3153822606916,57.1704730298282,47.6803284991475,53.0122144671861,54.0296093538416,39.1590440582767,51.5665197984698,35.3502832585478,69.0783566072232,37.7859998369406,44.7018297474312,69.1035511950427,59.7714232096974,24.0525240957108,37.8280829346322,40.252425586914,23.3282432616326,35.3324562936414
71.2991097485484,54.0452999701654,60.9754775070122,74.0506716377257,34.5119196748454,54.5069134047061,46.0501525519353,38.4434646512016,55.7133740243792,33.4712231901294,46.0602267730293,56.5545892557036,77.6030137093223,33.5509036064165,61.3343690424775,27.7662559280638,34.1799714897211,26.7914687647219,52.3024810102025,61.9541004472703,64.1020548003698,50.3409524217134,40.3767018270378,76.9717800410447,42.0004979730522,69.2675626965176,43.7755675920821,69.3116457627557,51.0865113886812,46.5025973842456,38.4097431955605,26.442953396686,25.6151693046256,43.1465812497274,24.8040358916158,56.890808969376,44.7805586736804,25.9583897080237,59.9674234799608,36.4152463189591,38.3508467869245,55.0337861581059,56.988365857625,69.4018550347349,56.5951063099315,37.0210496376612,42.1500706220844,68.1773865990877,46.4491645501539,45.3512202755428,43.6664386218823,56.6450748945601,29.6644505477632,81.20386679694,32.4789013185424,42.564587317119,56.0361117626472,78.8950614368298,41.8618190522447,45.2283580736894,1e+20,46.0488058405294,34.8418695125639,49.8469198453416,57.4582147073288,66.6694715454524,57.9067539614691,46.162350438163,37.7361200357199,17.3876938709074,59.9970313753121,37.0159628582829,51.1265286422084,46.7621282511116,46.8064999884779,38.3452675008471,27.4928531783186,40.5465000326606,23.5536597892637,76.7472924255326,42.9512388695819,55.0106610941941,15.745855754803,52.9097764786355,66.0614178421964,50.2280578806254,50.8697859542676,29.7302162304137,51.576685582449,54.8667646312258,67.4269611089647,58.9658724402199,33.8280174563008,88.2049433731038,44.0312307238681,59.5133732165115,44.7652555311459,51.8336897503443,51.4872699199436,49.300465450983
63.4130205104101,80.7339398890414,78.7015206711826,49.6939822080353,47.8548635016796,50.5490758074375,40.5641688629803,23.2438499641708,49.1721148422351,20.8217828476901,47.6716105936775,81.4587108150796,67.721198783438,53.1467493596343,44.3032283339235,26.3661855149882,58.4420490096301,60.3294811540497,55.0557164558841,47.738133344891,62.5128387694233,67.5699204380843,40.5998669575226,45.877754041868,44.3170196190315,51.8405194463689,34.9077438166317,78.702901000714,59.595086980081,54.0220667403387,48.5859089398535,51.2890925942258,31.5237942321886,47.9787724684416,40.6367373831257,49.1249547244747,53.3438856983521,35.8169479583431,82.5933801149709,46.4210534618031,44.3413577079906,74.5634146010626,63.2211750027785,70.645403496209,63.6815807223006,57.7040425531317,22.316381072305,60.2761470427852,36.2634444512623,39.9130328238779,24.9949814309202,42.017017064223,24.5238032217862,91.4707771996434,41.4225607444389,45.5430075440731,58.2902814122376,79.7331698919105,34.9152358677053,48.0896912995563,46.0488058405294,1e+20,33.7860666833391,52.4158607134513,61.5783116409328,52.6061591781645,63.396101196689,51.8459957131055,37.3004171693042,33.2816139547384,67.0372626640473,48.2982868220873,81.4653442742495,48.8984652201955,57.6979272011398,53.3189375807636,39.0890364697922,55.3615612479008,48.9339292475357,59.3749516744127,58.4801446883878,62.9668635876216,35.4013215840175,47.0460468379149,67.2548458427094,46.0161981900732,31.4928557723305,37.6004899018558,56.5229866709849,44.0302681424021,65.1691217203165,60.5620861117982,33.0797200737235,89.0141497700861,30.498379906402,89.7677752646637,42.4463515917055,38.4834273116095,60.4761194899275,65.3916624546048
64.3661857949786,69.7247018151856,54.5731814843152,69.4317486912409,55.9746330501286,50.5332531615092,30.7596910385167,47.3009468190024,43.3190520933991,45.7589038732319,46.1977280271494,51.7971761754862,72.0076551950724,58.2854065668561,47.4895840766916,33.8065533693998,56.2621446961782,57.7705814841464,56.6601585179213,56.6518918053186,68.6544786053606,55.3170465916378,43.5536622346701,73.8258936504239,51.1857783402958,59.8573696780787,58.555388708634,61.7640496978431,56.9339686844501,55.3352010370228,49.378251575369,39.9474468966354,47.448024836072,45.4649805129825,33.3439378449364,61.9949705207966,51.0817968084084,50.0054440928175,55.8230392843079,44.7432580319988,32.7808573140322,51.5192094417085,51.833912422074,56.6556192583591,61.0539525614848,60.9549345451222,37.7182660949821,46.5394913215612,56.0549501812265,64.3978459277623,54.6363228723621,62.0158723001913,44.4386435124822,83.0803192805451,48.4090739937216,46.6542135505159,63.9154500561336,69.4306025106076,47.6051309260076,45.8501389380943,34.8418695125639,33.7860666833391,1e+20,48.1864536087772,54.7004608479464,69.8201698488265,52.886860292181,51.6144273683021,48.8536449067957,31.440531986744,58.9476303224599,61.3193733662585,60.1031655606726,47.6750209368866,54.7231708562922,46.7597507194021,39.8362205898259,48.4313228143924,51.4128545945847,73.2510644913959,60.9818665395533,62.0454584540936,27.8250691751319,35.6144301859185,52.5273608125259,35.3745632180784,61.2480537655915,36.7097057738335,70.8940073042209,53.662667419178,66.9430936536016,49.8428450754088,41.6689455453846,81.1278837068524,39.3170017357262,56.6785521717791,60.0557942527161,46.3287069566295,52.3141566463206,56.7992765141439
59.8706255011769,43.2761308158016,35.7555330582294,74.3048918736635,34.387900357684,22.0532567530586,64.3318781115921,70.6554536490492,10.3404704697763,60.3885075303514,20.7801728315471,46.2983610438842,56.856715432339,40.1265399635992,70.4778062883911,52.6006921709634,29.4189980123901,52.0586924887337,63.1789854229936,72.0741421372262,67.3067210558707,32.689719917549,39.3519093435383,40.4410949652425,33.9395265793249,52.084335712065,65.4313561250601,77.7696975538041,48.6263654395675,23.1565173175982,21.342457065414,41.8586449813444,60.097795204358,16.2162178648848,41.8617362046283,25.6069848152774,27.3888518301379,62.8117668695972,61.9408320953768,22.4005224327402,65.2650636141081,37.501392666223,28.68543939841,57.3524867816759,42.8507338389527,41.6493492701562,49.6945308170236,75.2147631001408,49.6777889824495,54.4144660517464,67.6277425936729,38.333118484499,63.2516758934623,79.8012471910932,48.0039854389792,27.2241806508674,27.4124398839145,56.4077396209436,40.7203384700432,13.7718677304198,49.8469198453416,52.4158607134513,48.1864536087772,1e+20,26.7536760410923,72.4282000495358,32.4384483531818,45.2135718889487,50.2087555833718,50.6871422269675,62.7643115667486,38.4523939547771,58.1453453980875,11.7130135567963,21.2103014474418,24.1381949312625,48.7111761876128,15.3280921165568,64.6085439935368,77.7202689445541,58.0964008632692,46.323748753636,46.3485773410219,58.8762622678421,59.9000048046615,65.1430681935369,51.9867348547678,47.0678454924302,67.5288499822814,50.4546334005651,74.879967155317,32.5729681513186,52.0175161835858,82.9918686873018,65.8730200348792,37.1622382990491,32.5719833986087,45.8755244115615,33.5588606061511,34.3133489061966
46.5693422458427,45.5483340777633,36.5634364516979,65.6688908018874,45.514778481503,17.1919076018353,60.0466534279132,64.4901978323349,21.7001779948303,66.6224079766545,34.7131155498637,36.2087408344477,48.7785176959939,50.380794153962,63.1681944630552,69.4868811852087,37.4945004924974,65.9820914348541,60.3764902107379,68.5815793098875,59.9855404058797,32.006284673034,55.2846270279488,63.3457458855209,50.7495956817615,40.0854407445051,60.8135245164815,63.2428321869942,29.5053779978716,38.901400571885,34.7811365181936,53.5358322892914,69.7133752668708,35.8327285965874,46.8777139089169,48.2246770900175,44.9322147687914,70.8178156671661,55.0767930184793,37.5113639492544,54.3889155254653,39.6260792481058,16.9798523309882,51.8089883174707,37.2061732437405,56.4646686573921,69.6333719284966,68.8728627548613,51.7899383630873,48.3071489142906,65.3846808124082,52.6461000678962,70.517818314381,69.9326342527219,63.018385344113,44.1998228840793,49.5311431731585,45.0378638049323,56.1824284963411,30.4734884216728,57.4582147073288,61.5783116409328,54.7004608479464,26.7536760410923,1e+20,53.1645884510938,10.4076075721216,41.7198285951762,61.9299293713322,56.8373366753255,56.7013877282455,45.2291928789283,70.7074373664096,23.3100618098258,32.8003199765038,21.5717568757526,48.884551386372,37.7057953641963,74.191717601203,65.4510162122525,46.715173168612,43.9814001827738,56.3266636757713,51.9318321854642,52.1933843487336,60.7153123173734,70.6515801259539,55.9059357310768,45.5162891763913,48.79104479982,74.4625576796027,10.2254770314923,59.1767062050273,69.3023125668949,73.9036962486851,35.8711217116015,39.2993356452228,47.2068898592663,12.9006958413055,44.4053121870363
51.9394869046172,58.7630590011395,57.3706706647775,42.7270783185363,61.2069180877168,49.6114724535204,56.2294524268487,34.525699619444,69.2956014454052,49.3406238589775,66.7224869469445,58.9890483693477,38.7242034121179,74.5213616056526,60.226250942019,71.2841502640635,65.2782744006024,72.7819193677784,35.7939501107351,52.1120712706615,40.079229175049,50.6178668883023,68.3919119031123,92.209915756919,63.178871524561,36.8174525639965,55.1135204169844,41.3637462727649,39.0478792364255,69.5873635986244,58.7866182606236,71.2870833305711,55.114887123352,67.4262212774631,76.1233432945954,67.2313558167676,55.4640468254821,54.7639413262664,53.7856143672016,59.3054830912886,40.8706194435244,86.8973262325424,58.0132230805693,66.5866524927444,52.91807750271,71.8900852877381,68.503478404866,64.9304013689717,57.4611463742875,46.1477836616796,52.4130779260246,66.6233072091787,53.8089461600147,54.0912755386087,60.7030336530105,64.5197591846528,77.8411020460091,66.6710229266185,62.0322283793433,67.7585495462088,66.6694715454524,52.6061591781645,69.8201698488265,72.4282000495358,53.1645884510938,1e+20,50.4836845786896,56.4496866628771,55.4850892398801,58.82627152817,49.3177808250335,63.4012091145265,70.8034093301824,63.0439553385955,73.517631693545,41.7782844188977,73.8156121009069,70.4262776655642,68.4869509499082,50.4001658386611,45.9176353405174,52.8870401887623,61.5277349770834,66.6272837920681,63.5362193119208,54.2214895012925,58.173972686123,60.35897592999,54.6632457535085,56.8524272552498,63.3153418928052,43.3073614011385,61.2933070628029,45.3873938111558,58.2475250476677,67.2898686588348,68.8717466699728,45.1129386263915,46.2712401714477,80.5320551519394
43.7861691693397,48.9939873448302,31.1355209222714,66.7594169453556,50.1238422670583,18.3723940164106,54.9157167833105,62.042291823527,28.8340485884772,65.1594160019317,37.026515260521,27.4666352004602,54.361413199686,51.9382431156892,55.5062148851992,73.2232945563446,42.4135240650351,66.0547341299357,53.600292602537,67.6615845346964,60.7311063134031,29.8847331920583,55.6709142754358,72.3028316192818,50.2080029991894,40.3776784382313,56.4114124003254,56.2681237020556,30.0421589005589,38.9614041465366,38.3385332777342,52.6551358423998,68.3038815289773,38.19714669787,49.9382772667295,51.1649671750341,44.0650168293453,69.2227256078409,50.0729531948824,41.2895577534383,46.1364965627105,41.5794670540107,14.2037755793587,45.4985002717137,34.6783628407262,55.8227400121778,71.5372089134453,69.4197267253616,53.3464138364169,46.1541247205987,63.000547479076,55.096284091633,69.0286503388392,72.529618304993,62.7578466127652,44.9724130282226,56.1382247357374,41.9938180150065,55.9328518149445,31.7662264602476,57.9067539614691,63.396101196689,52.886860292181,32.4384483531818,10.4076075721216,50.4836845786896,1e+20,40.1434917044121,59.8692147844363,54.5731329405879,49.554177318814,44.193047976465,67.0973068916215,28.2613814465748,39.9964482990495,26.3266206927967,50.0760436731296,39.381607571211,74.7049401215389,60.7826370998028,42.0411640814446,50.0572137359626,55.0850518953882,53.6660166639666,44.7780727115558,52.4537826475097,73.5512941496211,53.9530017780268,39.4546630356489,49.3998918054115,76.5628331445885,11.8814572630062,57.5399023019972,63.259999383861,70.337251856707,29.0261006005498,49.481305126891,49.4994861461361,10.1528258271448,48.1043673323683
54.0433703099681,72.6887574603426,44.988652646881,60.0557170909463,36.671809429258,44.8181719455046,57.0013695917489,52.1672429837349,52.273091089718,44.1106974097521,31.4894958648063,24.6259483310412,71.5695706766837,50.9777082583828,56.9012598267623,47.5590746634611,36.2964210277923,35.3212560278608,53.104817788236,71.4425977158239,53.4601616835789,26.2677055361438,48.8807816140664,62.1982365112569,23.3677252997875,34.6501284522293,24.2829120021198,64.446556237359,34.2430922472378,25.5226896899595,36.7051052477712,45.0230760288006,43.8111748518971,27.7078332105189,50.8423413164608,43.1050619614972,32.7556798320694,47.8383716511847,56.058115557135,28.565996442484,45.3860347778596,62.6650014065568,28.7622937871007,52.1353398436615,24.4742297615359,30.1213989637753,39.5742807739005,67.3334275953015,42.9709692260385,41.0365935288834,40.8815122141578,36.9374388648186,46.1295112392714,78.2736165212114,30.2144071729466,19.0619043873017,56.6823115774642,54.256760606851,22.4296304366075,30.6292399124153,46.162350438163,51.8459957131055,51.6144273683021,45.2135718889487,41.7198285951762,56.4496866628771,40.1434917044121,1e+20,26.0160988597992,45.879235668588,42.9956636048995,36.6578400482799,59.6726329302005,40.1039136351289,40.8889926085062,47.0696773747337,49.3050111553136,32.2918840129995,54.3528575010544,61.6080760519658,15.9115359709603,61.820611122022,43.9093406621359,61.1610237270846,51.0339659207189,53.1396173373261,56.7012126426676,37.5447046920135,24.0124233778188,12.9388642240864,66.4803963311939,48.2447232290265,45.2910896400787,70.1239964301259,58.3425155468564,38.173702320236,52.0039174468016,34.0656355912777,34.6239555352354,51.0844019960467
48.1477304020467,75.4784772345294,51.1647566922354,56.5728046174821,23.7258788240324,57.5347455946256,47.9476217022242,34.9578892061539,59.995786513423,18.3965866441959,38.1622841839749,50.1779661011392,75.3062844661227,36.4029943111001,44.6407608702212,32.6182424813717,36.063758893644,19.736150145014,44.6091619924436,54.0652218466035,52.049567758723,38.8919974548012,32.7226470365442,45.1531095617256,15.9212696900204,53.5825164621623,17.4942398546963,71.493374373988,43.1506590430478,29.4951391671991,39.9722019801926,33.585822916046,18.8071245689237,36.6071772900061,46.669400351512,32.5381287129349,35.1577766501315,23.9174906046496,68.2263682378575,33.5476559964319,30.7476245157952,62.7022011488014,53.0048794717112,43.4805946688698,40.2940884879515,22.360770031656,17.014450554989,69.4365557829309,24.9873857322188,37.802423640278,20.2775951495927,22.5406735279575,20.0157713010877,76.3123291712261,7.86933582168029,27.3733527531089,40.2762090555019,53.6624271693982,12.1261461560829,41.397183702085,37.7361200357199,37.3004171693042,48.8536449067957,50.2087555833718,61.9299293713322,55.4850892398801,59.8692147844363,26.0160988597992,1e+20,33.7729107031374,42.5749950755775,26.0225518993276,51.3892819186534,53.3422459647306,37.8321947388582,54.0749374376448,44.2914060731851,35.5314219265286,33.052544978623,54.5408735921075,25.3101107516578,63.7817945974871,31.9896705567157,52.3776128514618,42.6134602144622,45.8455968623275,37.1446878199897,22.1983777890375,41.6763869912387,21.975486025846,54.4261619617939,63.3087064005252,30.1322031138424,72.0690468610969,39.3539882921102,53.8700542418991,39.2874770562916,30.0553996608524,51.3872448752564,39.7122763313568
65.5846314124855,58.1034138333682,65.6821591801942,67.1373424787503,28.5639615620259,51.1534629915943,41.4614567430876,30.0267296649599,51.8634666214459,21.4254742540629,49.8418250109206,58.8796881748988,74.4616352507292,43.961195876146,48.0114513992039,32.0853211364552,32.4897777431039,35.7857550680196,46.8240141851078,55.3710693481323,61.0617140038928,50.6133898478393,29.8969752174974,60.5670512058753,38.7170905430552,61.8396922391404,38.4868649142208,70.0286036082878,51.3242048668388,42.9341187032749,35.4959141900101,22.1761455206827,18.0375342299665,42.6784118832522,22.5075608848078,47.1799321900269,38.413696757059,19.275767348131,60.0798746535106,36.6568266326884,30.9777656314782,58.007653246962,57.5716079959785,57.7070875772655,55.3490856661186,36.0234661213831,27.0442031629023,62.8650245432845,36.2611765064102,40.3259362348681,32.371784675759,50.9064080833279,17.7066618413738,81.6127704302428,28.7006868491694,40.5795508466951,48.8323259050344,72.9042964595401,34.947918112872,43.9497059203876,17.3876938709074,33.2816139547384,31.440531986744,50.6871422269675,56.8373366753255,58.82627152817,54.5731329405879,45.879235668588,33.7729107031374,1e+20,56.7510213470206,31.880437116643,59.1592705469779,49.8390035326808,46.4035989286556,38.8769699010726,25.5879691752826,39.2274679906007,31.51321334702,66.3981036227068,42.6583873947,47.0401758603093,4.39000520895751,50.2170397383731,54.9118964493892,43.5438611928093,36.5114512036086,16.1898504800087,48.306695267312,49.590131325216,61.8829673598081,51.5346349039985,21.3778303510748,85.6708367614462,39.510382980574,61.2584780083641,38.5177488680894,50.5174368837924,48.2416163141091,47.4213403498233
23.6907433345686,61.6203767215254,37.4697147832853,45.5984477280632,47.1856518758992,54.4684738193439,47.5259251320761,40.9590142338715,65.5743192601886,49.0666118724851,51.0061167780299,34.9732048722596,67.4502542668635,57.2139946637426,34.2548089769532,58.3441380105822,53.8868468655624,48.4663179541928,40.9026772089847,36.6788483432506,51.846341455799,35.3732337249697,46.9586091902821,71.2887813076068,37.4969630915129,50.0922832375825,49.3375098802857,49.7031330658908,52.0755768225711,43.9291491413961,54.8092835490829,50.3830059069256,48.5277164621867,45.9886928670386,64.6439748505405,55.3988382110524,45.4382393789019,49.3653256959913,42.4522920486726,50.6049996058925,37.8426460463488,59.755702006096,46.0253387408511,34.0331071201688,36.9872449496081,40.5667766660242,62.0567601936846,76.4513236552774,47.7307150551216,46.3470374559802,52.0563195521085,42.9080044669254,52.8681245124056,53.3708191711617,43.4908894917806,39.1785110718458,64.2879588667971,25.4022409816002,38.4512542105357,48.1724518747421,59.9970313753121,67.0372626640473,58.9476303224599,62.7643115667486,56.7013877282455,49.3177808250335,49.554177318814,42.9956636048995,42.5749950755775,56.7510213470206,1e+20,46.233455767699,39.8782408703126,58.6527605470696,56.846160006969,56.3796952295206,61.469288791938,50.177731300093,55.6627245276205,26.3570812035781,33.529017119609,72.7188157167128,56.5821014582515,41.2915998269825,30.6251868226438,29.7695276842324,59.9539661572166,47.0092630544819,50.2425699664454,41.3133378802144,35.3440024892437,53.987821074541,44.545313531059,27.546587920595,41.058185075176,39.4756037486049,64.5255436595031,31.9666360151574,46.6577809655305,48.9121957685588
