1e+20,46.5756639654546,7.41244413889748,15.5947456672579,36.4999960942376,15.8686886029825,7.74345582609408,26.4823302058901,18.9289321330439,24.5414886233141,50.3823711763392,13.5603092842479,41.1757151990878,18.95989345614,8.32614973503419,55.2082241790048,26.3008669981164,29.6209409102928,22.9566488456311,21.571007000689,36.4831879915499,21.2396396701097,27.7125975673824,24.8766748726025,19.8127332055075,15.321906872599,26.981580276365,15.4311079472771,12.7162229342891,18.5659791724346,24.1389829845844,21.8653805039517,41.2733111015247,48.2913581127873,61.5694400871322,15.28322369006,46.7627507108012,32.3452737325686,18.3666796932111,26.8342760497254,8.9085928401817,15.288646687242,17.8257579391784,14.0592197905287,9.58325751955296,27.6103341003707,25.5474695711066,12.4464692328024,30.6591577291461,28.2408746832513,29.5942822534815,29.1661848332458,38.6311532920403,29.0691608816286,73.3748945572758,9.41807452737211,31.1462403900614,7.85873354521148,16.3821839372296,14.6810731689606,48.1147508130055,25.2151488268878,31.2173999166833,16.7519149542994,18.536449991519,58.9802678457244,19.3462076149735,7.54067018992119,33.0629330031731,33.2537347847102,19.0870444290419,57.8191766689085,24.8710369003151,29.5537385334493,27.0809189494625,16.617171355061,19.9677731289582,41.5555992371818,72.7859769022044,11.679070766837,18.9593123585776,16.9545505991647,8.60123946443144,16.7379335834415,5.32567358975791,26.1104620688117,53.1114889844561,32.5138158558162,31.4483972685818,28.3712960907426,12.6154777489269,10.6929398998648,49.2198327867567,46.384876460985,41.933796943728,21.5402824515181,37.6515980399632,64.8040882033039,27.6930396169808,32.5483628949239
46.5756639654546,1e+20,58.8217090904117,52.2992569533332,32.5222039509682,66.0633829627835,60.6605048235449,41.2118067018784,83.0256673868636,79.2117880312447,18.5957507986391,56.4475441684063,71.6387253812426,55.1517373535225,71.4236916684065,78.248799001362,56.2125505659078,59.7739843457851,61.51559045966,50.7996704670482,113.051626701994,85.5876880106847,56.5617820923092,42.0634696754268,64.2118776061564,52.0429014673689,88.3231556172061,92.2897404942583,59.0699667541018,72.6491205648161,74.7524973030347,56.2935780015474,54.2081450674685,54.5274572401297,83.7481632695491,61.0553667378425,77.2860720488087,47.7018850313937,54.1433688905716,62.0944058752986,57.7498109172692,53.0049991759918,83.293634089782,46.5438817134434,63.0651312258286,52.7903630717759,50.704018149242,61.3777912390501,49.1299933516557,37.9910261735003,76.6613985974052,42.1970957848422,102.296696354573,88.2416688888737,29.8908999489501,60.6837457107321,66.784580827753,83.260893771035,61.0001534551767,74.9032661683814,28.4150099535361,49.4044750396125,39.126742056407,55.4210296595785,37.8491184488989,28.1833499274298,72.5192253053679,35.9736471816079,51.7191963435236,38.2942663089018,45.6643010028951,52.2019547841485,63.2811250814264,64.1315946701472,33.8526573838628,65.9556230681054,49.7604284048673,50.019101395773,58.6527256985023,66.8971957897983,64.9490043755654,54.3935412896167,49.4985009367387,66.0382171840361,62.6808350271555,48.386828620696,66.9323852537591,52.4338122967327,70.5363298243157,54.1251402231055,71.9105117130442,74.0845282732689,45.4522318660729,44.1238815274653,66.4863203944245,27.3799211616463,77.7336630125141,21.7832306511522,116.426788417224,43.0416696956493
7.41244413889748,58.8217090904117,1e+20,16.7187460531093,37.6223334806968,21.7366035908952,10.079420785248,16.4752656662509,14.2497563479471,19.1465872307446,65.2016120358009,22.9736471226935,39.8943916934331,23.99140998331,13.0245908101353,48.0862075791239,33.6764626762031,37.3035425398741,17.4515798557648,11.809287381501,37.3428340770286,20.5360106922718,35.332099616368,29.4476105707,25.816122214857,23.7884754910583,21.7781402663165,21.2634175922595,19.0870111257374,25.7738061809648,23.2403390211824,29.0181087618843,34.2127324481752,35.4008776993186,51.4546823652043,16.2798231319624,45.4921250516409,33.7717399267822,19.748551208185,19.4420312098234,13.731719857654,12.4226935339951,22.4203898890852,9.26148315149256,14.8189140658208,24.9093186873282,28.3795677418395,12.1955000513686,29.2439539432137,18.6301353001589,25.2862941903771,24.8845341104509,27.3999720031868,38.0230281012978,80.4059140558146,15.0354265048687,34.3711703136102,13.4904876511663,23.0607058435319,21.4933742929489,60.3149675331865,30.0951746473678,33.0243430474868,12.7602493744968,17.7442824704198,82.2463932726206,22.269304551751,9.46465457536754,26.4083236738561,28.5629566539573,15.678375351863,41.7309613793536,33.1533300481258,32.9948504169462,43.4680522205011,11.3103870485164,24.8996301966694,34.8150187984867,60.6692134938227,16.7313382674326,19.2166392381706,24.1482720024344,14.4287753516352,19.0834787545638,8.838368902615,24.9241818742316,59.5614470313137,31.3192381530752,24.2400966633544,33.3827572807221,20.658480774411,15.7443419947346,43.1127999629856,71.7307834984855,36.7438974031739,19.2757874417943,30.8248991082263,71.8047394689473,24.368129468385,32.2832234953425
15.5947456672579,52.2992569533332,16.7187460531093,1e+20,40.7854275973033,18.3602563891468,11.2650077191242,22.2552862074303,30.3863950036011,29.1994194915285,42.9578719298289,17.1304204406331,39.7014893604756,35.3850628228869,18.0631184581279,29.694613382601,42.4095003447083,46.4607165798232,13.6273471172251,16.0303131767562,47.669660432396,23.4839071578149,44.06749678575,28.2460935766077,29.9076438609411,29.4003321289929,30.0997803836655,16.9161562459056,27.8871794313097,31.3800273087189,43.6194656526034,36.7212419061965,23.8541538677347,19.6177368511448,48.3673078880447,19.7309878636392,32.0434559549889,39.8730746323277,12.4546143610308,34.0326597996451,15.7508848907905,21.3838404246013,38.913160697313,16.1253799412338,23.6403976428367,40.1483629673096,20.7657245255208,7.74068286292385,34.372486304381,15.2457038421304,20.8620774282014,20.9299203239067,29.3606804215632,30.4669966051583,38.1497047087071,26.1429221487944,36.4087897377862,23.0220924235206,27.6897461473777,29.5651987316782,50.8050081129871,26.7616012650424,31.3367475937222,20.1489799105067,25.666532786208,49.1593803500181,29.2704357102973,19.25953927168,35.5585716527126,34.3668249958913,23.2223332851699,43.6892113851162,28.2703836088058,42.1900901569404,28.405161279684,21.110828190256,32.0946491995198,45.437333374933,48.7318379193778,21.3204247286252,20.3984284434362,35.4607463356587,20.6560250086069,13.8167923192361,14.5625716582087,13.3624130182159,66.0769951096343,40.4732356572423,31.3493232416747,32.5737961405073,16.2743978642009,18.6523038784666,34.8558811569105,37.0887058629305,28.5927414917796,19.1100933086628,24.2937213316674,40.7491053705618,30.7622021356174,41.1095184689863
36.4999960942376,32.5222039509682,37.6223334806968,40.7854275973033,1e+20,32.045669334965,28.9343540203877,20.4578401179879,31.5020276701301,32.7266131712403,29.0152605882319,36.3589184321555,53.1432845665214,26.3051002449749,40.7949497744935,32.6000024944213,31.0413311080556,31.0401772493259,37.8860364664486,33.3936117396365,65.1491430200581,59.5036816454252,33.5438200240543,22.2689507910672,39.3773939177649,35.826548977252,63.4678578055409,51.1226306910615,38.8530621515146,47.2991419080354,31.5482590090862,28.4277138441115,36.0318052083126,31.3333072250006,47.8233620587169,29.3572394261045,54.27654170941,12.9879889566858,24.1230598086938,28.8742306247365,37.8536274685957,24.4600881034206,49.1628909347256,30.5768002727616,43.8801255010634,15.2485379815898,23.8222555485677,30.2566885485604,19.7454225848479,33.7981579664034,32.7289449641994,17.2174615735103,51.6565038034722,67.5252300885702,40.2921813251893,36.6836847687659,23.664718957412,47.4974237443482,35.1000349645494,41.0911758453865,18.2493116781173,28.6345078246717,16.8443521071386,18.78409651048,18.7779224269078,59.3711298933169,54.668892743447,30.8849780793771,23.7471530395818,14.4603845691316,26.3556808767223,55.14966294239,36.8645264144061,52.8262965973817,33.4192376690471,29.4060996475279,30.0033813207,14.7981647636146,31.0394307909546,44.3499871005783,39.2277106348642,31.2345174083134,32.0761508225085,31.853164561123,37.2545616709512,24.1784498968924,60.3413910544766,15.1854956004849,27.5793262389084,31.650554689375,44.8324996012471,34.821774714722,25.4832346714491,64.534265650479,28.4167958733004,14.4201726380721,34.7798459915891,34.8962074307636,69.8609042138543,10.7867339853558
15.8686886029825,66.0633829627835,21.7366035908952,18.3602563891468,32.045669334965,1e+20,12.6689215322929,36.7776101112519,18.7782161670374,28.3739786420846,71.5254516379216,8.53442351801269,15.1278171650833,19.3239859813391,13.3406587625974,45.3629417895956,17.0693226539353,27.7621832877754,23.1241992479357,33.7709091694391,23.7559264587171,21.2741245791893,24.5621916275561,17.9144649592813,20.1885723254708,20.8935061306891,33.7708809312657,17.933665121592,15.5883072568893,15.2267669094151,24.1003650622751,16.6834650962148,34.2879463080552,37.6515003580469,52.7969019263144,18.7958471161241,36.8835888533497,35.703504561184,19.9047649899166,36.7502194665916,14.3322646193479,23.8868903959577,16.8673117951775,29.9948067792325,19.2676434044094,33.8085774959099,19.9565556702073,17.3204785846774,35.069276845672,24.9790714960793,27.0998007728867,34.6959873047019,37.4853984221297,18.0869324524953,94.8516032979691,15.4215584777644,29.2938518072738,14.8938248745772,17.7349574778422,13.3266285706391,44.839442855145,22.7450874855214,39.7170804329128,20.7182148981609,24.3976423162938,56.9539394820513,19.5964632073531,19.1085150458338,40.3333400561277,39.8503954618476,24.5029692398929,51.2835097128314,18.5804080397809,23.2786228641272,24.503224546926,27.1125228231659,25.1195811676543,45.8277451574066,65.5946615911047,11.1011777664142,28.0737160752385,12.6336937008441,12.241281045052,20.0230576459487,13.8644684653837,31.1374178028662,35.3401028980586,36.6853723837957,42.4316757049244,28.6812158785011,10.9011863576788,8.24342705088767,47.7443258110745,54.5274479262212,35.7120482460379,31.7129012866974,30.4576980135663,68.4293754268183,26.5066469461842,31.1599468756191
7.74345582609408,60.6605048235449,10.079420785248,11.2650077191242,28.9343540203877,12.6689215322929,1e+20,20.1153443310484,18.1289344996917,15.2760946887174,57.2937965321458,9.65818122806329,23.4461920703331,12.78342515901,7.58386315143284,35.1706111353334,17.251697596469,23.102294373068,13.8953994053658,16.050801659861,29.5574064307419,14.1379014273677,21.0448192833908,11.9368387155972,13.6018634159348,14.0965885219061,24.6368007542478,12.1972588268809,11.190934212184,13.5913936928854,26.9645258704741,15.882749206704,27.3751233227274,32.9338789695969,49.4746068651138,12.5378260468449,35.3170725679167,22.2626471441032,9.85375623496391,24.0681890713869,7.39804340768598,12.9905414505571,16.955582254842,12.9931774342317,10.8624772441622,21.2111237711797,12.6639666514014,5.74834325171227,21.26802660833,18.7199248365324,17.2714369799537,18.7979636665794,26.0264312789595,20.2926690499672,76.5434355369048,9.17272727368959,24.9201244020177,8.72390768624007,12.208072436377,10.4436477863178,42.8735718869026,16.1391902608637,25.5468964643027,12.6790876831267,13.1873343327616,64.026547900353,17.5009274412063,10.5109755824416,21.811252035144,23.7704945332701,17.0883702280317,53.5260289630001,20.7292898284892,23.6558623009121,26.3085384016749,14.9001763049412,16.426907590057,31.1133062617961,52.5475666771289,10.2047796594704,15.965599088874,13.0919288342879,8.07237375182058,9.93526580149519,5.44687467024584,18.7136657569727,51.4008431919992,24.4301304323275,29.4424455575203,19.0582504770758,10.9659829798116,10.4338444954394,31.4472312266162,54.5988173857121,24.3486382763416,19.3146836978619,27.0660469596478,66.9821814476513,23.4117872232678,22.7518269626061
26.4823302058901,41.2118067018784,16.4752656662509,22.2552862074303,20.4578401179879,36.7776101112519,20.1153443310484,1e+20,15.8797579238872,16.0998452037093,36.5195309037231,39.1884723829155,57.6783067894655,26.7063015066729,29.3958125469689,21.6871348041666,40.8720603065267,39.3222301978307,17.3025555099584,7.48635243558569,64.7307687883328,41.7117478371542,39.6184033742983,19.197773685163,29.4413511183282,30.3797787645128,31.4993000244421,40.7580190634751,35.8706116301749,40.6086443168722,29.6151986491469,31.7674786637551,28.9463693826991,20.8184232602155,39.3221988881679,16.8294092574368,45.8635813904015,13.9360536965268,21.5623955264045,25.3132532116142,27.807069423699,15.9312723275867,52.1835313285795,14.9033685113372,34.2162577045137,13.0300166170654,14.6861120645123,19.7486287546725,9.54384188330842,13.6246815240952,15.0521543272133,9.00533576139055,23.3101466399999,60.3613317002741,46.5864612196249,36.7254727584542,27.9267399746914,37.982853391129,27.7487151402908,30.3675025199001,30.536005131393,20.6759806959741,11.2889949838755,10.7707426491581,9.13557064976605,78.8492292255416,49.5946008282138,20.8481522956337,8.38608096855596,10.4404286472431,23.2877399813703,42.3100612222818,44.8183101737079,42.201134219314,41.9732030179553,16.1974975734261,30.4069848893746,13.1779356244787,30.0382071004242,41.7290694960403,25.5508004030581,35.5383223026319,31.9988189339121,12.0498728760044,26.3127436643962,16.5142131083683,91.1933048907867,13.3705628839436,17.4696379247666,21.2355151384584,38.9128917112763,25.7688943939175,13.0474055249343,76.1162270043181,15.1372450658615,14.2229359011518,21.3658064786132,35.2398928590372,43.1848764135234,19.4862935900321
18.9289321330439,83.0256673868636,14.2497563479471,30.3863950036011,31.5020276701301,18.7782161670374,18.1289344996917,15.8797579238872,1e+20,14.0670275127726,83.1702330510039,32.1162537903127,21.1954135518159,21.9838579036651,18.416751601688,29.4444314246619,27.1083395295742,32.2391625281405,16.5255969851724,18.0145328680495,29.6934884144273,22.1379784991174,30.2779048617224,20.2345494919126,19.9728905018066,21.0024039084263,23.5351511943913,28.3913669532556,19.8161797441946,21.1990136538336,16.8270957621171,23.1870863989702,33.9581596968121,34.3434447190382,36.6576777049523,14.4487874677883,36.2619263253914,28.6150863989645,28.952320623405,20.4900655078021,17.3503696797034,20.3702379225585,22.4334809175434,18.0115620731702,18.768325003843,17.1951290395915,23.2886039178245,25.8463338744251,19.0764762650057,16.6678159594617,20.7158113829851,31.0956366016012,22.3499227623864,39.7398620237221,106.56740857457,18.0434051108123,28.1995606316485,20.2227434803904,20.0345681229903,12.3809176590916,52.987524075318,22.5836518033894,36.0217093536365,12.9587882303917,14.6112235016085,102.390523447614,21.9596713601461,17.3100079064113,19.1193209515772,22.1712405347291,23.0916616349436,43.7140704702931,38.9691960647619,24.4757514456331,51.2715613122535,14.1308400906895,25.7293069422514,21.9309185438748,42.6028180020416,22.1016757068072,24.0827343965159,20.2060212696622,15.373709160678,18.4019088668657,16.9260150014565,35.5597683376521,64.0332856206064,23.9331088880313,24.6596691082467,26.1448903094045,28.5727300839499,12.6823865625015,25.0819513788744,91.8053129865235,21.7463541753223,29.8845470203365,22.5529535083963,93.9648933560889,17.8857002013279,30.6864303028269
24.5414886233141,79.2117880312447,19.1465872307446,29.1994194915285,32.7266131712403,28.3739786420846,15.2760946887174,16.0998452037093,14.0670275127726,1e+20,58.3887655269666,32.7054615094069,36.4464705912143,17.5992929993455,18.457712275702,24.6845782049147,29.8668567942107,29.3026514325321,14.8152400756105,16.8227833203116,40.0738484094686,31.4012420442096,28.5346401752931,12.4748607296113,17.6129690706175,18.0609230272007,17.8073648005137,34.1437957622132,19.8132699076683,26.0664843322855,18.4050851992389,23.5226744038086,21.2106904111619,31.8050220046953,38.2908128655305,11.3312027614641,35.1998446255821,23.8098068325054,25.1003590580516,29.9388076754027,17.8786516844296,18.4322602878275,31.1634045637054,17.8281860042939,20.0416332166336,16.487301166769,13.4079711830484,21.6414001863524,14.33831733074,16.1266846668651,10.8973478356597,21.6655271341256,14.9205901467945,57.306729961249,77.3300780820084,21.3594781901552,22.2168068797429,26.8234208219272,16.4134469179954,17.4390633245821,43.378666676611,12.6908221929454,30.3995031968756,16.5949517583783,12.3794768358023,99.6855877555242,34.6880624765491,17.9827140657679,13.5336182064552,17.9916332465749,31.4999164443249,49.9120999447142,41.0576228479213,29.961096624999,46.0590257464122,22.367667305939,24.3027117371695,24.2478902318395,38.6901294392637,31.2840694071831,15.4812021435334,25.5421223342128,19.6090687945513,14.0158083330905,17.6481229293887,28.6522905203123,83.4264649262261,21.5885625193772,19.164254914614,13.8513090158104,36.4876885451577,18.6425777212597,24.308351111239,94.149308666775,16.7339977377061,28.9495593887189,16.4225764748941,63.5199630502941,25.8402818493442,29.0301391527881
50.3823711763392,18.5957507986391,65.2016120358009,42.9578719298289,29.0152605882319,71.5254516379216,57.2937965321458,36.5195309037231,83.1702330510039,58.3887655269666,1e+20,57.4257345332461,81.3762689086211,62.5526036235601,70.5746994898404,66.4766789473795,72.3006750417228,75.1723430469287,60.4201191054812,45.3637092265874,137.204233706203,75.7949500847272,70.7982259023746,33.2194877647911,65.3771485184111,55.4073732141215,115.414120172598,83.5751149217019,55.4629471215531,73.4688578582824,70.6677945341243,66.0789322680413,63.4618877608521,56.7206059513482,107.437250062824,43.1974857327824,94.8817708443885,42.709016967987,46.0255944227426,51.7414284535261,54.7732807941711,71.4614051737739,91.3226054374376,46.576072402393,56.2929625191498,54.5169581485108,47.8880079005352,50.1042297202033,38.1280894761371,37.2810219089548,73.0198188887379,34.7830162814398,129.648293393668,95.6718965580476,14.636837654164,62.9606774494843,60.5022933982238,82.6604601474669,63.1732762863684,71.3507822777845,17.9745555374365,48.2271893344442,29.4677441864529,54.5624086644914,30.1855737430903,49.7419330020471,69.1343296967064,41.4529854943228,35.4351522028448,34.0195014301423,43.266881988528,81.6499005770909,78.3593763230197,61.3062750200941,32.4726418637055,57.3952772656109,61.6610559506636,41.9026643757439,58.401909219574,70.2588142319386,51.2486831954463,60.5101515900594,48.187514953689,51.7754099111525,61.295127672572,25.9463825015647,88.5336042190184,44.4345865100934,61.7503372565597,51.9414251396628,75.00191071537,73.6008182305327,45.2649477632432,44.8514155604175,64.1393413596722,25.5823661498321,79.7286961615217,8.0789873761455,134.758699291408,43.5676292611146
13.5603092842479,56.4475441684063,22.9736471226935,17.1304204406331,36.3589184321555,8.53442351801269,9.65818122806329,39.1884723829155,32.1162537903127,32.7054615094069,57.4257345332461,1e+20,27.2235108831408,18.155956115358,10.6715210987799,54.1279397945833,17.5900577719129,27.4563258118866,26.3676411889517,35.44411542375,34.4851161575251,18.0881443902273,23.3129837109987,20.1704510989121,18.2938500826633,17.6919061436954,44.7365151369658,11.4602745630357,13.5598052400385,13.7254651085086,36.3788221025521,19.322212862606,40.4896095763301,43.1016545505204,68.9046951987419,18.739210421001,43.98802763475,32.1666214072852,20.2869032472727,37.2051817925528,11.251949145707,25.3819351763933,19.936076530791,30.5974968291216,15.1510174814476,34.8159515114025,20.9787123339874,15.4629404679154,36.198010400463,29.6613823504166,34.3259854070343,35.5724168123167,49.6088135012499,15.4740964869682,82.2349931178486,12.4789488784579,34.0076416494722,11.7468657073011,17.7844269703443,16.590066266646,43.4855177473683,24.8492238327727,35.6061057186788,21.3674603336537,25.1411116642798,47.2217304958476,16.2013456557107,18.7507202842081,41.1094154226484,42.1554803165465,27.7497880687402,62.0323525148045,17.588544262,23.4098472909635,15.1717639795545,26.0635756467338,21.4328070250037,48.8820451226274,73.9693948818675,8.7364750806601,28.7739305752313,14.8854192300857,11.9245488377565,18.4425377881238,11.3022356898294,28.8882464857588,53.1514707721318,35.7842535045193,47.8213631388654,29.0343434042046,9.98969544202208,11.8188955476709,51.7499713535833,39.1165431336599,40.16952129635,29.9127699505676,43.3795690087761,62.5206208247054,34.9824872925233,29.7336648808066
41.1757151990878,71.6387253812426,39.8943916934331,39.7014893604756,53.1432845665214,15.1278171650833,23.4461920703331,57.6783067894655,21.1954135518159,36.4464705912143,81.3762689086211,27.2235108831408,1e+20,20.2899579706784,25.2705485876096,53.9324947272222,15.4015993853735,19.5551177316359,26.5018148278812,52.1843245543435,25.9362012916532,15.0428888539693,23.1137104207742,32.036822437955,18.3755234066321,23.966205141646,37.1384404920588,21.623588785084,25.8392697540336,20.8102795787731,35.4033980989679,15.0824846398697,29.108194183356,55.8989218206865,47.6496313437036,24.6904632860014,32.0847799872688,40.6903864431274,49.7930518527282,63.2544814634389,22.3873112419889,39.1276959692437,31.9519928092227,56.3945402528432,25.3470240126014,39.5022550935635,22.0683090242031,46.8523537698756,45.6153062919546,35.0947847745378,34.7817877799822,63.2719421634226,42.9560010031699,25.2222823871465,102.260230219029,28.2875860665,41.2736543088046,28.5441688102867,21.7959304349228,16.5364689106994,50.9571404617441,24.6070708565927,73.4812732445223,41.1948382280201,43.8386329688542,76.8421989799846,24.6543272216571,36.7042671976624,55.3611074048552,57.4664204138524,59.9146334268094,58.2948780033119,30.5866529587479,19.4848280908237,38.5517736114594,38.4602946304002,21.9641629964813,64.4988607421171,64.6574981653691,31.468801144317,42.3869540205396,26.5805561457151,33.4583781095798,25.6000768934939,30.1417246601938,63.5422013788214,74.5887908465998,45.4378145079369,55.9719614231305,28.4035539185963,32.3016664081154,11.0901174610907,59.1054632146489,75.3966858444553,38.2492894437781,62.3099769324183,30.201339037125,91.6986334538454,18.1201055500963,46.1274711394843
18.95989345614,55.1517373535225,23.99140998331,35.3850628228869,26.3051002449749,19.3239859813391,12.78342515901,26.7063015066729,21.9838579036651,17.5992929993455,62.5526036235601,18.155956115358,20.2899579706784,1e+20,13.4985981042272,30.2969488440245,5.85486883213249,8.09648883173933,25.1839902536089,33.6381608902825,23.8991143683821,29.3860467608481,6.15262958653515,7.29408182428456,9.6702586523008,9.42649433377728,32.0464585127573,34.3073852909173,12.0424935292981,18.9579280983933,18.2680562696145,6.33739333041137,15.6932732420015,39.0150154336628,37.3050881931151,21.2268128273241,26.5479206953744,19.6703554477973,19.5069807845276,33.5941191756322,12.5420178381266,15.4950908046289,14.5052629127962,27.9389088520656,17.7126967783699,16.3450379562183,11.9256622160296,23.2188858450156,20.415205471301,29.2981750553617,19.1086299400894,27.4652712349077,32.3644275895431,44.0060501701921,79.1057645070935,7.59253480340151,20.3701476568979,19.4935848767382,8.7002690942869,10.0531544843776,36.0301566642048,9.03198358137441,32.4512519950169,20.0725158722514,18.6685127152837,68.6483638451527,26.3108144160099,13.7538140540694,25.2433324090394,20.2330819090571,32.0131697739564,40.3812394623981,21.5460167004782,20.8448879925591,29.4652775144563,30.4424709973855,10.8096175433717,29.1029551409044,37.9022994466746,19.2831177990193,24.9201917857806,8.38224988966974,9.5118410565407,24.2043401136912,15.4477748228841,39.7116132653507,45.0465126458321,22.4527367506687,34.2049543279054,10.7761514839568,26.9435099279921,17.0892829649239,31.9781793841236,76.4589825832831,23.2146805466182,27.8310293922732,23.0219901851603,70.955093894615,28.707652569776,19.5441333634687
8.32614973503419,71.4236916684065,13.0245908101353,18.0631184581279,40.7949497744935,13.3406587625974,7.58386315143284,29.3958125469689,18.416751601688,18.457712275702,70.5746994898404,10.6715210987799,25.2705485876096,13.4985981042272,1e+20,36.9876143651045,17.0319188883933,22.0987137027801,17.1269079949356,23.9181787181734,23.553297989574,9.81067766914458,17.2777414406188,15.9157606941202,8.40173059669033,10.0005044114804,18.0211375115039,12.8804439813375,6.88455464645547,8.99104247076826,23.6045753300172,15.9997707050792,25.1569327259757,36.2631436787398,46.3449618792898,13.1592810188829,26.1772770843186,31.6078745591694,21.4907915051225,32.3232097140238,4.00264971933136,18.27030980926,13.9442708869208,21.1151456700088,7.36494638391671,25.8963038847464,15.8225269856595,15.5262548928195,25.5760623555704,19.720090122581,17.1971905079185,34.2969385096399,25.5356755326978,26.5813572915598,87.0591846736903,6.4901635429972,26.7962388696405,6.37872448591708,8.32894296752678,7.48231759861801,53.483499355428,15.3156285690614,37.0657342327667,17.4801997212465,19.2595449962657,70.169158783998,13.9742252689338,10.1028924208914,29.1446229571466,33.835151498271,29.5454873281667,42.4421994196572,22.4656690664457,18.5020343305456,29.8299931065319,21.090091266701,15.1033504594081,41.0799178412831,57.1125260564837,8.22883541843014,16.9491212986711,12.8339940981028,6.5617561173724,13.5196482833255,5.40396361958774,34.8536977687941,59.7522437817003,32.6757951596242,33.9395184786637,18.0230474804448,13.2450174236876,10.8549373846539,39.9264396027967,64.2054390147078,25.9002125600198,33.4757606061474,24.6450204637037,85.407407651048,11.5715941133515,33.5434073596092
55.2082241790048,78.248799001362,48.0862075791239,29.694613382601,32.6000024944213,45.3629417895956,35.1706111353334,21.6871348041666,29.4444314246619,24.6845782049147,66.4766789473795,54.1279397945833,53.9324947272222,30.2969488440245,36.9876143651045,1e+20,39.3248524093651,36.365861521307,35.3364086626469,34.057627496585,50.909283240954,60.2326320401146,35.1686577661364,23.9252447785208,29.9465177113276,34.1990795512318,27.389203658317,58.7114879327777,46.6503348858334,52.8021187363127,48.1911088116865,32.3842023720343,15.5021207940303,16.4394135439899,16.9272797162465,39.5826554530833,24.7809556915606,20.7056839970277,34.0326972910099,61.2865429198931,35.3348817696103,22.5897027696154,70.8972037342461,39.6520089166666,57.0171536207152,18.4273716875012,18.0016122690746,40.1921932827128,15.4521379447222,27.943824357746,14.5657378468925,17.4611014099121,12.6353048136111,87.0929254006081,55.3963115226157,50.7847314028514,32.8485735759167,57.6340876565208,29.9616607870797,37.2343860456745,52.6496270576132,22.1689930206414,25.2417955872019,26.123475782277,25.4559794627013,110.724072742944,74.7404802587516,46.5693940889286,21.3686985434456,15.547008986262,57.2683236873809,31.7591042973,45.6907064817937,50.4915583625556,57.4343827332306,46.769454234251,32.4751244189248,19.335662270048,12.8301043383498,62.1486616957294,41.2049220875611,46.3253651216527,46.5734043743651,32.3112807525457,45.9099256485666,45.9921077583332,105.222172095085,24.4245683393267,21.7010561330635,21.8953178550909,60.3271180736892,40.1386510323939,14.3739844221111,121.965730886391,10.4309009614686,37.0250410257804,8.39855029324451,62.6690818789385,38.272760899474,33.3716867600742
26.3008669981164,56.2125505659078,33.6764626762031,42.4095003447083,31.0413311080556,17.0693226539353,17.251697596469,40.8720603065267,27.1083395295742,29.8668567942107,72.3006750417228,17.5900577719129,15.4015993853735,5.85486883213249,17.0319188883933,39.3248524093651,1e+20,10.2415669449797,33.2397266467276,47.5487852887307,24.3584748345803,31.7055647836251,7.81632448622632,14.7780675688582,13.417651939415,12.2745103106811,42.5698745248403,35.9679866464285,16.0601538376191,22.9039549396544,23.2393980776897,5.15624468534751,21.2225420502973,46.224029764563,41.5364750963861,27.4033579417625,28.2067286532579,25.5825593243246,25.9308257863214,46.4333028393864,16.4487191067183,21.2216671773809,19.5449001879293,41.5977295835394,23.5737696040068,23.2338637218475,15.3533443889538,31.8198002119615,31.4133063817328,37.3323402768729,25.7601047139092,39.5626705096473,44.3195456985714,41.4084753242385,81.5033668473375,13.2561674318871,24.0398026006071,22.2202127253963,12.0326810349886,14.1170452945964,39.9661378216514,14.2248647113377,43.1360375813047,27.6915921365959,29.0743918040307,61.7520198569839,29.8026052802458,21.5314409945923,38.9247514631872,33.4724281812832,41.0697366476464,41.3888091259317,16.401694599246,23.4847582441403,29.341689479342,39.7535820245,13.309249866838,40.7828247831017,49.1515168416764,21.0286929155816,36.9977292474263,8.88708770498724,13.891281102043,31.0110803475549,21.498311416643,51.181043375014,37.4622636901893,29.6965827868981,44.786970110283,17.4776915073355,27.0328472205134,19.5135309907943,44.3135896524841,75.9810186174844,31.9300040275038,37.7467237639605,28.8734120956762,68.1053557335169,34.5430585574789,22.7620560824171
29.6209409102928,59.7739843457851,37.3035425398741,46.4607165798232,31.0401772493259,27.7621832877754,23.102294373068,39.3222301978307,32.2391625281405,29.3026514325321,75.1723430469287,27.4563258118866,19.5551177316359,8.09648883173933,22.0987137027801,36.365861521307,10.2415669449797,1e+20,36.7251822704687,48.2839261269451,22.9256292973278,40.4907000655797,6.12136090703546,16.8642432926887,15.7994687414652,10.921110364175,41.8903101583671,43.6657822614927,19.8352843230796,29.1847922787944,27.4068351733308,8.87782181281401,17.3023212128019,48.2589681050142,35.2342015906145,31.9388373243062,21.3671721932892,26.6818265217544,30.3340997627423,50.0144875515203,20.6100725440119,18.3399658052415,23.0501215931988,43.2202874121123,27.6424269688506,22.1122387092726,17.3701502196196,37.7986717985253,30.3162294224307,39.7287619897465,25.1627816500547,39.8691991945658,43.4253584348329,55.9857693949519,88.2980851963352,16.1956773155972,23.0955536569999,29.9042456769922,13.8521609891302,18.9486442926978,41.1992440132267,13.9326423804967,44.0591591317462,32.0664524484159,30.2135883768548,72.8764483804233,37.5445505501336,22.5427046252826,36.7649423599845,28.1063175375264,48.1720552094286,38.4115980343063,19.9211543186211,28.0028008267206,37.1256996493341,44.8199624006102,8.27789713963254,38.5039060371869,41.399137785476,29.9637662903772,36.6077293096228,15.9995082225293,17.7942813602644,35.8402294230684,26.2499288490207,55.8943225653503,49.9953268046164,30.7313626682167,42.2884523498598,17.4469492231349,38.0934230575229,27.480257467857,42.4351335241924,88.6309612618855,31.2444999327245,34.1086205097016,28.7446635019111,79.5557161106869,37.0254408069895,26.5944206022828
22.9566488456311,61.51559045966,17.4515798557648,13.6273471172251,37.8860364664486,23.1241992479357,13.8953994053658,17.3025555099584,16.5255969851724,14.8152400756105,60.4201191054812,26.3676411889517,26.5018148278812,25.1839902536089,17.1269079949356,35.3364086626469,33.2397266467276,36.7251822704687,1e+20,15.5068411630135,33.9836394853978,17.2140569044851,35.4581679811051,25.7096666990438,20.0545535747562,21.5891422273819,17.4791301255526,19.5086692542447,27.2867072648767,21.7543527981836,34.3902471050863,28.8473514361452,30.3032033042977,29.5638588885711,43.8110328400964,14.4757140250467,38.3119483505576,26.9618854424606,22.9125513590101,41.902209261559,17.2318037356132,18.3982505013795,40.0540538406284,19.3617855414448,25.1511621858408,25.1173949340892,17.4652224194919,18.1737426294266,23.3422888169566,13.069696725227,17.959172268215,18.874034277001,17.8853609356063,34.4986635908508,76.2152349009632,29.3556078260749,31.953955574801,27.816001298294,21.789406452847,19.3987627099659,49.2097303240063,23.0366181069962,27.3761699262615,18.3128591457098,18.2201381675272,87.8011407412827,36.8348543705488,21.3637198309011,21.816708894736,26.3538104890916,34.9266592784484,53.2275315709257,34.5562673583794,27.6234220634034,39.3409164175026,23.5553809865865,27.4051727560393,33.8312108202966,52.6778775035638,31.4482331235804,16.9201223508308,30.7820894816675,26.7025606901268,8.63341135003432,19.9733073875023,24.7263093716368,82.386546092381,27.8224342874108,25.4684409574626,26.509485692561,28.1828461206962,14.6447573177414,27.2359385025032,72.9049959546578,20.3105146470281,28.1071631892763,22.0589358529064,58.5950173380755,18.9652609866552,32.2674383168842
21.571007000689,50.7996704670482,11.809287381501,16.0303131767562,33.3936117396365,33.7709091694391,16.050801659861,7.48635243558569,18.0145328680495,16.8227833203116,45.3637092265874,35.44411542375,52.1843245543435,33.6381608902825,23.9181787181734,34.057627496585,47.5487852887307,48.2839261269451,15.5068411630135,1e+20,56.7248685442346,30.4463668360803,47.5387957175698,32.068321991225,32.186512593764,31.6415820125838,22.0968616450589,30.3434539536589,32.1982313727591,38.5461587189624,31.6305703588541,40.1127516086607,35.5132353136235,27.2808472439247,49.1327584569914,15.5476511515196,51.2483100457353,27.7993740108757,18.2819264498633,26.3900641428242,22.6947440066143,15.1127559705203,45.3224706770904,12.8986479623358,27.8175033022945,22.5988088642962,24.6578173834507,14.9143105853483,21.1932607931379,13.995749602206,19.3170257118182,15.0295023572778,18.5767856517646,50.6399537731522,55.8770495007833,34.5268831907771,33.373951326009,30.4931554276151,31.5657213929232,32.8096425418278,49.5602973485609,30.4689946635442,21.5759912762136,12.7513574949659,14.5766546108419,82.4170581766167,43.1001795423342,19.0128412246507,16.3679246663327,23.291365397702,21.2562249452388,44.8055262932825,43.6553176554128,41.9409252311744,45.1401194836741,16.1081331685377,32.9868077102009,26.6656686738197,53.9688885527655,34.7475493687627,20.7989003418504,38.8672732148841,29.6302663215774,11.8399194057321,20.9853322617382,17.5679997764869,84.8396750050251,27.0141620671852,16.9791618045313,32.8946093857777,31.8428483898787,23.7818466999464,29.2867124509412,72.3095992108807,27.1535779088236,16.0622426222981,25.5835356033087,43.6925881426659,32.1419515752319,30.0082740115782
36.4831879915499,113.051626701994,37.3428340770286,47.669660432396,65.1491430200581,23.7559264587171,29.5574064307419,64.7307687883328,29.6934884144273,40.0738484094686,137.204233706203,34.4851161575251,25.9362012916532,23.8991143683821,23.553297989574,50.909283240954,24.3584748345803,22.9256292973278,33.9836394853978,56.7248685442346,1e+20,21.2759644399676,23.0515095220408,32.1805291270929,22.7773111633743,29.8870070930317,26.9312638077512,25.4354417474237,25.4709490752546,24.3665319653028,33.5368463963518,26.3357875568758,34.9404612701926,56.5665446743125,40.9968349039044,30.5445624510389,25.3194933956567,54.8459448729022,48.6316081658171,51.3446499655555,23.7170219355898,35.718109225954,17.788004461036,50.667076333406,26.4619641487418,44.0478289851727,36.3236928805324,47.0477677763509,50.6437976229157,39.8042885992611,34.970037786403,73.0151439082176,34.8189137026131,25.021829836876,157.875666543268,25.3732520800274,42.4973137501629,21.2672635460067,24.2350378020363,24.7536595751483,82.1670829428667,31.5259606794106,82.2653826000112,41.2293804296379,47.7023730775737,101.857354294091,22.9161848831097,36.1372684932505,59.8233403462861,62.0737499346573,51.2681836943084,43.9811933780249,30.6454398060065,29.329070782827,64.0762150467293,38.236465493543,25.1443181268368,65.7993351148077,65.5338021524346,22.8558904361906,39.9374676453953,23.4380801360097,30.2272831885026,35.2035508406639,26.639769150886,75.131824436171,20.2926876610037,57.072135889518,51.3841968113795,33.544043567433,26.6705741818545,30.1016643044237,68.000605206161,104.411414567694,40.1032358724495,70.5528082633557,32.585929456781,117.863836386399,15.5922910518186,53.6944350264656
21.2396396701097,85.5876880106847,20.5360106922718,23.4839071578149,59.5036816454252,21.2741245791893,14.1379014273677,41.7117478371542,22.1379784991174,31.4012420442096,75.7949500847272,18.0881443902273,15.0428888539693,29.3860467608481,9.81067766914458,60.2326320401146,31.7055647836251,40.4907000655797,17.2140569044851,30.4463668360803,21.2759644399676,1e+20,34.7581817187027,42.2371487061485,22.6490609805835,19.4632686651364,19.0519597593833,8.05284470916334,16.96068946792,12.9425021485754,31.8618247737196,31.5571288840563,35.9131925004156,50.3553497110351,63.1306362399784,17.2164910229451,45.6304466749126,51.4963891596333,30.6750331465773,44.618014769426,9.72937314570307,28.6977682878496,26.3992419643261,31.7300226887355,14.2138984735409,43.4792452274969,32.8425300311362,25.5298361543747,45.6932295231902,26.7948459809191,26.9584727972163,51.3260868914481,31.2980715667957,17.0263629102089,110.788652579481,18.4026114247342,32.9906820706982,13.8788611864244,20.4085809342683,21.5568219938698,68.5856961773388,28.8715203710757,55.3043972520129,28.167660619071,38.4922189848437,66.8752367786739,16.6121440231594,23.5480584661459,47.7880703969706,55.5521647720119,42.6583218498045,62.4532288880038,31.0189887688466,25.5199243865155,40.52212394425,26.3392284886937,29.2523202646332,62.4648036629532,88.0701624846286,14.1702307257341,20.682116191763,30.078927272253,21.7087699596234,15.8997364699252,15.0465490597197,45.2805742396162,65.1860818344085,52.1110178412437,36.8064995259251,38.204363719159,18.5167340294807,18.758811160025,61.9565492189195,62.6758268710864,42.9755869384481,46.5213778022402,31.0914625751957,92.5765011697636,9.5048154201017,52.5762406510871
27.7125975673824,56.5617820923092,35.332099616368,44.06749678575,33.5438200240543,24.5621916275561,21.0448192833908,39.6184033742983,30.2779048617224,28.5346401752931,70.7982259023746,23.3129837109987,23.1137104207742,6.15262958653515,17.2777414406188,35.1686577661364,7.81632448622632,6.12136090703546,35.4581679811051,47.5387957175698,23.0515095220408,34.7581817187027,1e+20,15.1211641410446,11.9714819037524,8.60400233687826,37.8555052190967,38.6771206200075,15.2831361416311,25.4628442665255,26.8150344075511,6.93551530189088,15.2615215634143,46.4310345518979,37.7350725419256,29.9221395035654,21.9007136792466,26.8281010629039,29.0411015306795,47.8164162689162,16.3020323211574,20.2596299885351,20.3656346919589,40.9702879924359,23.1356959055425,22.30075634166,15.8217180383397,35.9942473970286,28.7915428305543,37.7197164112044,21.9892712983124,39.4295895055154,42.0048617904902,52.6418488297786,83.697047551281,12.2180406655757,21.6304064072714,25.2965191077481,10.1448809583191,16.8054113615396,40.5146659757663,11.2737199378549,43.0199405542842,30.1404208377892,28.8299795494128,64.9725172365513,33.398264752532,20.3701689823654,36.0089335636422,29.2232207249482,46.7848345480037,35.1586672672992,21.7615682503494,25.1870030664419,31.2958465213582,43.1732850144809,8.54688222638411,37.3864162887918,43.0797241395192,25.9472140324928,33.263995744463,12.5580993952321,14.6374367103221,33.7732604389043,22.8946860533794,54.4135350531211,45.1040659995101,32.4928941503811,39.6823359281679,13.3878060685157,33.3443520048606,25.1472587827977,42.326041057246,81.1915703420833,29.9803241475535,38.2278881618036,26.7447717842388,72.4090637778491,33.102208377227,26.8179521991846
24.8766748726025,42.0634696754268,29.4476105707,28.2460935766077,22.2689507910672,17.9144649592813,11.9368387155972,19.197773685163,20.2345494919126,12.4748607296113,33.2194877647911,20.1704510989121,32.036822437955,7.29408182428456,15.9157606941202,23.9252447785208,14.7780675688582,16.8642432926887,25.7096666990438,32.068321991225,32.1805291270929,42.2371487061485,15.1211641410446,1e+20,11.623912102728,11.8347782696051,28.1722442216448,38.6197294295811,12.1333966764857,21.5845892903667,18.1547612442323,11.5384286493312,15.2988811323395,28.5727104372487,39.6268805170701,21.2359441307544,26.5798999262529,18.4307555471107,16.0220034734045,36.4890791051538,13.6524062967342,16.8505454103082,19.7936947935414,26.5198608013232,21.7231755990961,16.6086436744504,9.79530870568112,24.510230483194,15.7926358294789,23.8033376166655,13.8667566081308,16.8455702363389,27.7033037289301,62.9475641699903,41.4750143935515,9.39854843950348,19.2452412718898,27.7288915370576,9.90673614949424,12.366290152993,27.8644675393164,9.32234630060658,22.8287147156055,17.7576430165122,12.5809008552816,53.528741427034,37.9303101974223,13.7686061447487,15.8504645943598,17.1192855835528,33.0795000190331,44.3249891830476,25.9435887168736,25.8994780371788,20.5698704488684,36.2557031877453,16.8281031186213,23.9550233029837,35.0384933513922,28.0485759386768,18.0932008228047,8.69912276147615,8.89246411776854,24.8073370058491,18.9872854079486,31.6439993355576,51.1714307760524,20.3289867718204,25.5631723628043,9.56988092965289,33.9209052039778,17.766588797066,21.7832236901639,69.5297511614619,18.17525975677,24.2828885932953,17.8925822832483,38.8184972713608,32.1376923249865,17.5070905309816
19.8127332055075,64.2118776061564,25.816122214857,29.9076438609411,39.3773939177649,20.1885723254708,13.6018634159348,29.4413511183282,19.9728905018066,17.6129690706175,65.3771485184111,18.2938500826633,18.3755234066321,9.6702586523008,8.40173059669033,29.9465177113276,13.417651939415,15.7994687414652,20.0545535747562,32.186512593764,22.7773111633743,22.6490609805835,11.9714819037524,11.623912102728,1e+20,7.42294002283382,21.2003799818435,24.2062180927041,10.0030085782041,15.240515678673,26.9687024855129,11.7161915194756,12.9040045155037,34.9455321628572,37.2953003956274,17.1605041614022,19.6761420421572,26.3470561117187,28.4388040455944,47.1039050893462,7.36258051768133,21.6834767669765,23.9537394502654,30.866564580157,14.5711674300258,22.6762653806623,10.5189728302559,28.7554494533445,20.5983952631901,22.7131574164149,14.6889407383619,33.9078507279216,26.3454294409784,46.7618270949352,81.9755535132932,11.7754536227977,24.2787789362189,20.0337282715604,5.70746845760561,9.19478764849215,40.4244805710465,7.35966383934446,36.7048695151186,23.2110321528489,20.1369324754976,77.9398137877401,26.3577397121726,11.5633317282568,25.3828529875811,28.8478611639167,46.3851760484173,35.7584104980378,26.5591602644014,11.9937334071398,29.0165733200301,33.9668557941069,12.8643374910277,36.5883001123729,42.6060390413964,22.209012352985,19.2819882361258,14.2263697114999,11.6941895606656,20.0231831823852,14.9907510060363,44.3739060038108,80.0601061518487,28.7379467296414,30.8068481287082,8.30931084187446,29.4662062383363,15.3041442123181,32.9224226340068,88.1524540324375,19.3878632121647,40.0835701603069,17.3056224440383,80.8600712603956,17.4607226836874,32.3971618688533
15.321906872599,52.0429014673689,23.7884754910583,29.4003321289929,35.826548977252,20.8935061306891,14.0965885219061,30.3797787645128,21.0024039084263,18.0609230272007,55.4073732141215,17.6919061436954,23.966205141646,9.42649433377728,10.0005044114804,34.1990795512318,12.2745103106811,10.921110364175,21.5891422273819,31.6415820125838,29.8870070930317,19.4632686651364,8.60400233687826,11.8347782696051,7.42294002283382,1e+20,23.0056542644409,22.6022686516478,9.26780147131671,9.47996488996063,21.7118213106375,11.165284449334,14.1144141409934,41.0713863446868,43.5179291362857,17.0042456391723,25.5561339641213,25.817489262479,30.0562131487283,39.5642925227121,10.2739860480423,20.5054429357827,17.1117830481157,27.4457397531342,11.2076751498511,21.8929132162666,14.1636689495144,25.8235508712969,22.0843111606557,19.794580386135,19.1115807153838,33.8346722364942,29.635330066018,42.0493887830292,67.4904938423951,8.9358802175784,25.2551281286394,17.4456363777761,8.28160642066753,10.1981777901465,36.1646117855441,9.90644939590125,35.4773417101647,23.4444550288874,20.6152961865166,73.4267994307393,23.5250981517185,12.7242971123954,25.9899906147006,26.3992761593085,41.0265305822408,44.4460428061993,25.6879991062952,18.1868033654241,28.4072513513945,31.7553076401474,9.62222533421744,35.5858009465876,41.9413143860278,19.9992302623621,15.064758340219,13.7420729576286,9.13925194298667,16.6077435908211,12.5732555403789,40.1237678301527,78.9302886709486,28.6749052104085,33.4913316954619,9.06473039318291,29.6026184048828,15.222308435768,35.6375841180042,74.1202696190685,24.3076448617711,37.7776560921796,24.1499672823519,67.3082037887562,21.36911698407,29.7326771875432
26.981580276365,88.3231556172061,21.7781402663165,30.0997803836655,63.4678578055409,33.7708809312657,24.6368007542478,31.4993000244421,23.5351511943913,17.8073648005137,115.414120172598,44.7365151369658,37.1384404920588,32.0464585127573,18.0211375115039,27.389203658317,42.5698745248403,41.8903101583671,17.4791301255526,22.0968616450589,26.9312638077512,19.0519597593833,37.8555052190967,28.1722442216448,21.2003799818435,23.0056542644409,1e+20,27.461425459972,24.4640435471177,26.3514135914792,36.1904717884163,37.7004447630217,21.2580664062691,37.4619404444087,28.314646639834,21.2994618166881,23.9109885355105,48.9885937151296,35.2684265190925,44.2978681278345,17.6764018665656,24.2330202423032,37.7923390116611,26.9000525293334,23.8148046418821,34.0435171200426,29.874839862557,29.9636058742684,30.5844341009641,20.2357368175546,15.6740498805865,43.7091367835864,12.3209895040131,46.5887622134009,114.129592978773,29.9096847440603,37.6270387129134,27.3525293631531,22.4544672948823,23.0513708763827,92.3067478376314,23.9865723584929,57.1959053223043,28.041225117423,30.0111953140573,112.743297295776,34.1294319824641,21.9986261408106,30.4185549562244,37.8510508453419,45.7493162268083,20.9182194346812,47.1590332701261,32.0306225184694,73.6422763677887,30.8042949958456,32.1280850316003,43.8583686812669,43.0103992477121,31.9108645360953,18.0442320991878,38.3506166975512,27.1608216119664,22.117848523574,22.5530401850902,55.6287977548677,84.0069327126315,46.7511064966033,24.3952513132227,26.2033981340855,36.4684354026859,26.2337798013869,41.6594250179282,124.019140534094,25.194192444251,52.623181912808,18.2133618055644,114.344918498707,11.6987379897309,55.6381527047904
15.4311079472771,92.2897404942583,21.2634175922595,16.9161562459056,51.1226306910615,17.933665121592,12.1972588268809,40.7580190634751,28.3913669532556,34.1437957622132,83.5751149217019,11.4602745630357,21.623588785084,34.3073852909173,12.8804439813375,58.7114879327777,35.9679866464285,43.6657822614927,19.5086692542447,30.3434539536589,25.4354417474237,8.05284470916334,38.6771206200075,38.6197294295811,24.2062180927041,22.6022686516478,27.461425459972,1e+20,22.639689127738,13.8888868785308,42.2537019259436,33.9529485554059,36.0065033334414,43.0120760314531,64.9980100358719,12.1323532513227,45.4601173020355,50.3292107116281,22.8939615320417,40.858918303956,13.2106180276731,27.0462952889194,19.9217884777382,28.0366648023848,18.1382111526375,49.1551433393068,28.6924528119306,18.9059850569646,44.847736604418,27.5597775643334,29.4828667209855,49.3547406774778,34.7663290623808,9.76289670354255,109.231798511799,17.6591501911362,30.355447957748,8.84361382803299,20.6290239541466,21.2040275467749,70.5216318486793,29.7564024149134,51.6478277833764,26.7917895551081,33.7994123038548,61.7070606294831,18.021704724642,23.6742109826948,46.6507978542386,52.2668346414914,32.5822982448081,53.5462980588707,26.3175572194286,26.1863139187167,39.9748521395401,25.5426873974559,32.4620771171847,61.8423666355059,81.0253542364929,10.2715195306079,19.8543223206823,29.3725215210131,21.4325607313792,14.2616385742469,12.4894537004263,37.5118041281898,54.2001478975063,50.0946926132073,39.6983783173612,39.8090190059112,10.0972430198992,16.8665209571957,59.9377692151904,54.2790868007748,43.5661867387927,42.2768186883706,32.5088457952721,93.9478990840602,17.3410575489637,50.1891395195116
12.7162229342891,59.0699667541018,19.0870111257374,27.8871794313097,38.8530621515146,15.5883072568893,11.190934212184,35.8706116301749,19.8161797441946,19.8132699076683,55.4629471215531,13.5598052400385,25.8392697540336,12.0424935292981,6.88455464645547,46.6503348858334,16.0601538376191,19.8352843230796,27.2867072648767,32.1982313727591,25.4709490752546,16.96068946792,15.2831361416311,12.1333966764857,10.0030085782041,9.26780147131671,24.4640435471177,22.639689127738,1e+20,12.1819225741349,18.8999874762242,14.8213188163953,27.5881757591689,49.4732934447642,59.3020932086519,17.1273750466384,36.3802696117663,32.5781449022535,25.8482865279762,32.6005897846566,6.76759066373586,22.5749997562638,10.4152278008333,27.2929905289247,6.58235890225549,25.6887019923203,19.1368402116157,21.3014874851721,26.2689626993122,28.4458164792857,22.4503767600076,38.3911965095838,36.9485606023412,33.4929317889092,73.3957133755121,6.44912814640377,25.8018194202699,10.038417383414,8.7896165236339,9.72796279275734,46.2093252119906,14.1440648167251,40.1703256621345,21.1331548864594,21.9765112979233,58.4786150608326,16.4729902507117,11.2678625632576,31.0845057340514,34.5858336370928,32.2154968036235,57.1432180507109,25.2161461853334,20.3850423720694,26.6119829405097,27.2328505282407,17.1942916353815,39.3767886577203,63.084882419558,10.5541858705238,19.2285104818353,10.6715366413307,6.64315738329092,21.8221754722409,9.0621753042592,38.2257757149063,58.0787636403877,33.7021366437509,34.8447178981817,14.6518146808161,19.5828787372539,13.349978630654,44.5843936271508,53.141251458372,32.4064567731048,36.8078572138905,31.0700627149697,66.0458736442508,20.9174253940636,32.6315681198589
18.5659791724346,72.6491205648161,25.7738061809648,31.3800273087189,47.2991419080354,15.2267669094151,13.5913936928854,40.6086443168722,21.1990136538336,26.0664843322855,73.4688578582824,13.7254651085086,20.8102795787731,18.9579280983933,8.99104247076826,52.8021187363127,22.9039549396544,29.1847922787944,21.7543527981836,38.5461587189624,24.3665319653028,12.9425021485754,25.4628442665255,21.5845892903667,15.240515678673,9.47996488996063,26.3514135914792,13.8888868785308,12.1819225741349,1e+20,22.2995919341473,22.481858104243,27.3829624967865,43.9700694714122,57.2417037201821,14.1020793220004,38.3469071135671,40.1965615297231,35.5116843303757,40.5357768978704,11.2476069895497,28.7582679336777,10.9946772981308,33.9024033293599,11.1930637616703,35.6585845327005,20.1327406468626,28.4151183867811,36.9458201527282,21.5918307038137,21.3352286871488,49.4255016089529,31.9576142006862,30.9234383206005,87.7906737004659,8.09547389170739,21.4001764609065,12.9689758948881,8.71574235717687,8.46874427691825,58.1791262098721,15.0486359743778,49.5741695420799,25.6835996474282,24.8883140740944,76.3323759430426,19.0170921122964,19.3234650343546,39.2831914430141,40.6251995694767,41.724787262381,57.9561850989266,29.4021507694104,18.0729573911623,33.9248648811406,31.4195325010424,23.6517382969498,51.630972459237,74.2123734132107,13.4523448678146,17.1356238442794,15.5173614500965,12.1286531159245,14.9626238974073,12.1511673974941,47.5019294474792,68.2606624843301,40.6057122046468,36.3230374982236,25.0820349479438,23.7423232881239,13.4791040246944,51.5048363071307,77.5570743518985,34.6793094510157,47.1040643110397,26.115891832572,72.8132802965777,16.9663638212833,38.9973251666996
24.1389829845844,74.7524973030347,23.2403390211824,43.6194656526034,31.5482590090862,24.1003650622751,26.9645258704741,29.6151986491469,16.8270957621171,18.4050851992389,70.6677945341243,36.3788221025521,35.4033980989679,18.2680562696145,23.6045753300172,48.1911088116865,23.2393980776897,27.4068351733308,34.3902471050863,31.6305703588541,33.5368463963518,31.8618247737196,26.8150344075511,18.1547612442323,26.9687024855129,21.7118213106375,36.1904717884163,42.2537019259436,18.8999874762242,22.2995919341473,1e+20,20.6528200826405,42.1919757960525,52.3543666201384,53.7421805661815,22.4979040574858,52.651734076796,32.6773028035417,36.6505608030168,17.9641288559265,25.5606526608692,27.3190124532813,14.4891014173819,26.4252653099164,20.0561664496564,18.4068879644944,32.6978943766689,33.9650721907343,23.8511186930479,30.1529986677476,31.1152358098916,40.4124879770581,39.1165812107822,48.5452977297899,92.1438648398394,17.8798855101285,24.9765514036926,23.7336741336483,22.0650063447682,13.0689300073236,48.5751811785588,25.3008643469261,43.0633873004804,18.7849057607538,19.5651987960823,87.8432205820052,26.3794673211793,21.7242642613476,26.426844402159,27.2540164430938,24.9494379226475,63.4053002111683,42.9377949235014,27.5073384674793,49.0373232095899,24.215712411809,31.5365917832138,24.4456055088575,50.6058341668454,21.896368611456,28.2354944884285,17.4004891156176,17.7758580509084,32.4823151864614,22.3385803478939,44.1164904612642,51.1655854660779,22.5208014167349,32.4116333139473,28.2237572662506,36.3880782595182,21.5174673524946,37.1502600311286,79.7965361859044,33.4079419740485,35.6920316694462,35.6595807915045,82.1643120455629,32.7293404002998,28.1271615790764
21.8653805039517,56.2935780015474,29.0181087618843,36.7212419061965,28.4277138441115,16.6834650962148,15.882749206704,31.7674786637551,23.1870863989702,23.5226744038086,66.0789322680413,19.322212862606,15.0824846398697,6.33739333041137,15.9997707050792,32.3842023720343,5.15624468534751,8.87782181281401,28.8473514361452,40.1127516086607,26.3357875568758,31.5571288840563,6.93551530189088,11.5384286493312,11.7161915194756,11.165284449334,37.7004447630217,33.9529485554059,14.8213188163953,22.481858104243,20.6528200826405,1e+20,16.3099008040084,41.2712115278575,37.5602149385785,24.4097378521796,24.83067135669,22.3694628768446,22.4918414538547,43.7266909585619,14.8889335264417,18.193013624986,18.4622181729402,34.8965739796703,22.3935556781507,19.3642951066944,11.1011624324525,28.7179229975912,24.9114374782269,32.246359731813,18.5127432478916,30.6560247495615,37.8218135620049,46.790864980557,80.522006994677,11.9175915618671,18.9697330116589,23.4656076307562,9.39026633086441,12.5426806173881,37.6053579902675,10.6162822310341,37.1466430114696,24.3921542732321,23.5459438292918,64.9480681879028,30.7043117219742,16.2389372772712,30.9547859020746,25.6332992515548,39.303727976897,37.9786660650958,20.3455483734798,21.8962432862426,30.4027127876228,36.7538452699062,11.9510843544905,32.2664901623152,42.1024742102522,23.0209599823893,29.5783235596821,9.00421475788709,11.8581069969569,27.7867493049252,19.5428009352026,46.360278584992,47.4457299307975,24.9734458116205,35.8302952775166,12.4194543694289,29.9444205082707,17.5101286569071,36.093355138889,78.7352667611749,26.2707596979856,31.8125901818144,22.7435698448501,71.8795425450384,31.996217156471,22.3504170705326
41.2733111015247,54.2081450674685,34.2127324481752,23.8541538677347,36.0318052083126,34.2879463080552,27.3751233227274,28.9463693826991,33.9581596968121,21.2106904111619,63.4618877608521,40.4896095763301,29.108194183356,15.6932732420015,25.1569327259757,15.5021207940303,21.2225420502973,17.3023212128019,30.3032033042977,35.5132353136235,34.9404612701926,35.9131925004156,15.2615215634143,15.2988811323395,12.9040045155037,14.1144141409934,21.2580664062691,36.0065033334414,27.5881757591689,27.3829624967865,42.1919757960525,16.3099008040084,1e+20,29.0206220554542,22.4554035349426,36.3676710903124,14.2950155633052,22.9879104917968,30.6944365353031,62.7187582735841,21.2241759824359,20.0059079241928,53.0557598684979,39.3737151336448,41.7886217318929,20.1883439309381,9.36328123748382,32.703563296559,19.3624613337035,24.1209302704415,9.47599908913521,22.8608378138983,22.1911802382857,55.6425731328396,55.7437791825754,32.8496746360632,21.0999006908392,41.1585681958229,11.8451585433573,22.9046096700501,45.2713412839721,8.41940395205413,33.4931771276867,32.8885058629054,23.7342477649418,86.0546540131721,53.8128867825291,28.3393353414157,24.5032318423779,17.7093627042104,57.3215292446438,23.9624547721839,34.3238050591342,29.8397590025883,40.3211364647533,46.4565367498184,16.8853221833818,27.890308188467,21.8507700217744,45.1348115032076,25.4791454769719,28.3508887720369,31.2117282042526,32.5285346892173,37.0687621736543,51.1635493198151,92.4583505205587,27.509945933582,20.9328490167086,7.9665449517251,43.358182260655,32.7293465186717,22.3609349346667,85.3905200619998,14.9023311106415,42.7267860520542,11.7710664016231,62.214570586422,23.3287568567208,32.8104288085879
48.2913581127873,54.5274572401297,35.4008776993186,19.6177368511448,31.3333072250006,37.6515003580469,32.9338789695969,20.8184232602155,34.3434447190382,31.8050220046953,56.7206059513482,43.1016545505204,55.8989218206865,39.0150154336628,36.2631436787398,16.4394135439899,46.224029764563,48.2589681050142,29.5638588885711,27.2808472439247,56.5665446743125,50.3553497110351,46.4310345518979,28.5727104372487,34.9455321628572,41.0713863446868,37.4619404444087,43.0120760314531,49.4732934447642,43.9700694714122,52.3543666201384,41.2712115278575,29.0206220554542,1e+20,30.5206552425975,40.222946372714,33.9079528782189,20.4584118179701,36.6679502071292,51.4081856635266,35.3996059314936,25.5882137167259,74.8447796714912,33.2352707983514,57.9997437247363,25.2561746797211,21.591362901746,30.38014651847,18.056049284688,19.900250155332,23.7248931087259,15.4161560296693,25.9677582893983,63.7165987224445,48.2724132192901,53.2106206366228,41.9214652667344,54.0941343794007,35.7859511336389,40.2296914203121,49.4502269128514,31.3773183719249,16.4953252849219,20.5479590438595,21.9456581827872,64.6433460255741,66.8554751565637,41.9987142839576,24.5609319109092,22.7028047212289,44.8520860295614,31.9388338775408,45.504875852306,42.7996602291239,47.417355223683,33.8975668899933,41.9975926305478,20.7674707284884,23.3640485899725,54.3223172794148,39.679970782705,48.9731857345092,48.1743775471778,29.405055639207,45.6340423295125,34.359891670588,92.0224280959439,23.728399540692,25.6970981714216,32.7787495062867,46.2805617461487,37.6102123750456,13.6037241328278,92.9263979180069,14.0149860359323,34.1687730044635,20.5342557295983,50.0926634451653,41.6002653129152,30.5350436905854
61.5694400871322,83.7481632695491,51.4546823652043,48.3673078880447,47.8233620587169,52.7969019263144,49.4746068651138,39.3221988881679,36.6576777049523,38.2908128655305,107.437250062824,68.9046951987419,47.6496313437036,37.3050881931151,46.3449618792898,16.9272797162465,41.5364750963861,35.2342015906145,43.8110328400964,49.1327584569914,40.9968349039044,63.1306362399784,37.7350725419256,39.6268805170701,37.2953003956274,43.5179291362857,28.314646639834,64.9980100358719,59.3020932086519,57.2417037201821,53.7421805661815,37.5602149385785,22.4554035349426,30.5206552425975,1e+20,56.7275539418719,23.0499235099484,32.0883458049661,55.024482755918,73.2097399338684,47.117229119219,27.445883868116,76.2276892646701,52.1122876972865,67.6746576674481,25.2963079821556,31.0438332972787,58.4256104771438,30.6637432724748,42.4113058839973,27.4597322172353,39.2890336030401,16.4875086022556,87.7372980672535,102.919357962738,61.637678917277,45.417121400173,63.6268808917406,37.3180946224361,45.6176971135612,69.9342074191274,33.2465448084448,46.285753147863,38.5727162225373,42.6580276789663,106.696339547865,77.6507376220618,54.1003456522931,38.993246286862,29.2185072740388,72.8100222264604,18.8197801207585,51.5272373858027,53.0159853926864,81.2255634798175,54.408588076762,36.8634685437936,31.4480790736594,12.7739664881989,70.382249083561,59.6964035769069,56.4230143719222,58.986655492191,49.1361824988313,57.2488241628548,72.4753262364342,113.600407805203,30.2562735232617,33.6632208639094,33.4224530685055,68.5088984870326,50.6086647195565,28.3914271260987,158.103038319,20.9985587243977,57.9708266913716,19.638568162587,106.409607219115,34.154131901011,45.0986404084752
15.28322369006,61.0553667378425,16.2798231319624,19.7309878636392,29.3572394261045,18.7958471161241,12.5378260468449,16.8294092574368,14.4487874677883,11.3312027614641,43.1974857327824,18.739210421001,24.6904632860014,21.2268128273241,13.1592810188829,39.5826554530833,27.4033579417625,31.9388373243062,14.4757140250467,15.5476511515196,30.5445624510389,17.2164910229451,29.9221395035654,21.2359441307544,17.1605041614022,17.0042456391723,21.2994618166881,12.1323532513227,17.1273750466384,14.1020793220004,22.4979040574858,24.4097378521796,36.3676710903124,40.222946372714,56.7275539418719,1e+20,47.15449918875,24.3133492718089,16.1733091199747,24.6712601517125,14.1591238971074,27.3509703004231,22.6110957828809,19.4434391483351,13.6880111989023,22.5802672475454,18.501650748722,15.9492608633799,19.7302810417568,20.7652941006867,18.3916152127349,20.981833084178,23.0967805587221,16.4805713131054,62.8720165970853,17.0692341859238,18.3676854958355,15.5274295245994,15.5067366086443,13.3374939467269,38.6998840488959,19.1988354882787,24.8208060253442,15.6776707241231,15.380693146652,52.1326723060089,21.0498156115932,15.8804340519786,17.4268680406186,22.4607133830355,23.39852420416,68.39529642,39.403358773968,22.4990729576933,32.147267092267,15.0289038331973,25.2610785648566,28.6640676694467,58.7254088849015,18.9789243723917,10.8360984001037,22.122259614372,15.3363380265129,9.72859313990712,12.3899239702365,19.299446298944,32.4603163094609,23.5365333493465,22.4519544914932,23.8095088975215,17.8262456431935,12.008186932894,32.4013910735613,44.8452354023083,26.2540059593607,22.4068206581731,28.8755181071152,48.9204110031697,20.0095758363978,28.473155052068
46.7627507108012,77.2860720488087,45.4921250516409,32.0434559549889,54.27654170941,36.8835888533497,35.3170725679167,45.8635813904015,36.2619263253914,35.1998446255821,94.8817708443885,43.98802763475,32.0847799872688,26.5479206953744,26.1772770843186,24.7809556915606,28.2067286532579,21.3671721932892,38.3119483505576,51.2483100457353,25.3194933956567,45.6304466749126,21.9007136792466,26.5798999262529,19.6761420421572,25.5561339641213,23.9109885355105,45.4601173020355,36.3802696117663,38.3469071135671,52.651734076796,24.83067135669,14.2950155633052,33.9079528782189,23.0499235099484,47.15449918875,1e+20,39.8933788564317,43.9687644125411,82.1278991725384,26.0970080667802,21.2524935418077,58.944587884,52.3331220008333,49.1457829405447,34.0865519619911,21.8338888933503,46.5438951321961,34.6480945041153,35.9187055036429,22.0041480941362,41.9836542510963,24.1041661435833,68.7047350586012,87.84863563774,42.1158081152566,39.486520845986,46.6450799041684,21.6084152860251,28.4949742508458,71.2475627578745,21.8304759277727,51.2744710876991,39.3954224663684,38.969771221385,111.875829835562,61.3865421967795,38.3734472473338,44.1338712485906,37.8075611488591,73.285383990824,21.9375353698098,26.0420987885152,33.6161745643014,55.7526881741059,61.3268851903368,21.7807452646885,46.9883446358473,35.1558641962387,49.8279979437857,43.1436905686625,38.4646319905782,39.9670825389863,42.439931915206,41.4460609573667,70.7145142437499,102.640004825868,44.8653691309691,41.0077957548568,22.4987652682349,50.881937269577,36.0677804986248,38.9929393228056,122.958845831623,24.9508302813471,57.3389860948868,19.4142458622834,103.895451969588,22.6783190714187,51.061651794344
32.3452737325686,47.7018850313937,33.7717399267822,39.8730746323277,12.9879889566858,35.703504561184,22.2626471441032,13.9360536965268,28.6150863989645,23.8098068325054,42.709016967987,32.1666214072852,40.6903864431274,19.6703554477973,31.6078745591694,20.7056839970277,25.5825593243246,26.6818265217544,26.9618854424606,27.7993740108757,54.8459448729022,51.4963891596333,26.8281010629039,18.4307555471107,26.3470561117187,25.817489262479,48.9885937151296,50.3292107116281,32.5781449022535,40.1965615297231,32.6773028035417,22.3694628768446,22.9879104917968,20.4584118179701,32.0883458049661,24.3133492718089,39.8933788564317,1e+20,25.1512189430992,30.0524907170346,29.1403792305602,21.2220670312507,45.8305444064225,27.2796634200577,36.4027131116708,11.5683447474755,15.6077692856799,30.470483134484,9.98537195014396,26.4603203807435,25.5462969651069,15.6656607610199,34.6474600388297,69.5787971877092,51.6084164601797,28.4262641436803,28.0214049556466,40.7525491827181,25.3711040247828,31.2199622498942,19.2001215567054,20.6462178995865,11.2921768787456,16.457559014108,15.8128289142913,77.1321596582862,47.9500484932656,24.8136509651772,13.9586270119106,10.7840881699413,34.2308495684876,43.7163910989375,36.0515867525338,40.4045631327639,35.1444534925413,24.9583041264244,23.7427873657977,11.5516291075701,18.5673029742754,42.2678002547463,36.4303598463143,29.492197877712,26.876192410584,23.4677668703165,30.776474273533,27.6285229725054,79.0773241088603,9.16329381559884,27.9200311257504,21.7684596023714,44.5864274312854,29.2044238991266,13.7975891979499,87.9192010201996,15.523768206763,16.7019908714968,22.8938067492879,49.0681783086594,54.1893386286722,9.58575539754941
18.3666796932111,54.1433688905716,19.748551208185,12.4546143610308,24.1230598086938,19.9047649899166,9.85375623496391,21.5623955264045,28.952320623405,25.1003590580516,46.0255944227426,20.2869032472727,49.7930518527282,19.5069807845276,21.4907915051225,34.0326972910099,25.9308257863214,30.3340997627423,22.9125513590101,18.2819264498633,48.6316081658171,30.6750331465773,29.0411015306795,16.0220034734045,28.4388040455944,30.0562131487283,35.2684265190925,22.8939615320417,25.8482865279762,35.5116843303757,36.6505608030168,22.4918414538547,30.6944365353031,36.6679502071292,55.024482755918,16.1733091199747,43.9687644125411,25.1512189430992,1e+20,27.9468502088775,20.412284185714,14.3837090625006,28.793223596757,14.9530653017718,25.84614418438,25.0254302516271,16.0887652784415,6.14784415086089,26.5000560137228,26.0333846127262,21.7907299736389,14.8882913195929,33.4218351544642,30.695670268165,59.7817469861202,22.9106974601002,31.7161707614762,20.7028214602725,25.8063123992181,29.906056466126,41.0272196773389,22.8715547080736,25.6922291537835,16.1569150204824,19.7644817863653,48.2606915567817,36.9910743419466,22.555749992705,25.4779052383116,23.9213508122493,12.5139712102935,56.9822209522534,22.0048031345635,48.3627726006878,29.2389006467186,22.7889249926557,24.6567922980748,29.4616555186948,47.5306349760212,19.7248711293956,20.9619495034272,19.839726432023,20.3823453020073,17.4006155407887,14.3637640463202,14.3904186542614,26.7183720698353,28.8659772178845,31.7229853369301,23.4795627055272,12.8742089006336,20.8601309723581,33.7344011727559,40.7538917087571,31.4541259942931,17.3369024788849,33.1762674370924,48.5038513930808,42.3156263053076,21.8669826908794
26.8342760497254,62.0944058752986,19.4420312098234,34.0326597996451,28.8742306247365,36.7502194665916,24.0681890713869,25.3132532116142,20.4900655078021,29.9388076754027,51.7414284535261,37.2051817925528,63.2544814634389,33.5941191756322,32.3232097140238,61.2865429198931,46.4333028393864,50.0144875515203,41.902209261559,26.3900641428242,51.3446499655555,44.618014769426,47.8164162689162,36.4890791051538,47.1039050893462,39.5642925227121,44.2978681278345,40.858918303956,32.6005897846566,40.5357768978704,17.9641288559265,43.7266909585619,62.7187582735841,51.4081856635266,73.2097399338684,24.6712601517125,82.1278991725384,30.0524907170346,27.9468502088775,1e+20,33.9544905720396,24.3620892439103,29.2575665393048,21.7759907636204,27.7346960766972,22.2403008512947,46.281756800407,22.3240600823439,31.6680188553515,40.0843422347848,44.1171885244143,32.925151273014,44.0486984958118,48.428585242574,71.4273019645987,28.970857823736,34.6611414394573,28.6140821272965,41.7809292732456,36.6541101169547,54.5024976002062,47.4253176478864,29.3904917780217,11.959214046667,23.4026837635792,79.7656456987854,35.33206156742,28.1155668141155,30.0162509631549,32.2060339841409,14.4407430271232,79.5865900412901,48.6363014003516,55.2208084265266,51.0874631635399,11.0517954285761,44.4385442502208,26.0337848567243,76.74146432256,29.4011320941939,31.398635294088,34.9167471984134,26.9782609523233,30.0357035497894,24.4295182537763,27.8620817502478,55.4359889769766,27.2287657599096,24.0712232076106,46.7568817843992,38.5703772432374,34.2562425174974,51.262128781391,61.7089404918624,49.7261978027782,19.377451623301,47.4010857056533,61.3559891031285,53.2079692862378,21.6359252916546
8.9085928401817,57.7498109172692,13.731719857654,15.7508848907905,37.8536274685957,14.3322646193479,7.39804340768598,27.807069423699,17.3503696797034,17.8786516844296,54.7732807941711,11.251949145707,22.3873112419889,12.5420178381266,4.00264971933136,35.3348817696103,16.4487191067183,20.6100725440119,17.2318037356132,22.6947440066143,23.7170219355898,9.72937314570307,16.3020323211574,13.6524062967342,7.36258051768133,10.2739860480423,17.6764018665656,13.2106180276731,6.76759066373586,11.2476069895497,25.5606526608692,14.8889335264417,21.2241759824359,35.3996059314936,47.117229119219,14.1591238971074,26.0970080667802,29.1403792305602,20.412284185714,33.9544905720396,1e+20,17.9420616923539,17.1486115999859,21.0640271441512,7.15471621367057,24.6917255637782,13.3946816956972,14.9922695447463,23.3603980526394,19.7730618366389,15.7994718637795,29.9967768152769,27.0406399416362,25.5078814612256,74.0310228144708,8.57414695016706,26.6671808661737,8.79042673167378,7.3502333623185,8.73765144402122,43.2573823249557,12.6422369131495,33.1339416016088,18.1246445250614,18.4462741255736,58.5675117821509,15.308625594005,8.85600333312927,26.8529768321904,30.6944928870688,30.135153436031,45.1004349314893,22.0196537712891,18.2993876111545,23.994706283446,21.2094558972558,14.2576842546629,37.9266394961961,52.6290648455735,10.755289541919,17.4345525738654,13.2197798815206,7.83158833105887,13.5991642188102,6.71750848971004,30.5701716523388,61.7911922131832,30.9700197203678,31.5125373917374,14.3641279699212,14.2538299765406,11.5528907564543,36.9170328992759,52.8581937261501,23.7344318372931,31.1164839936516,23.0371879806371,74.0073435535511,13.0964096280552,32.2918202062295
15.288646687242,53.0049991759918,12.4226935339951,21.3838404246013,24.4600881034206,23.8868903959577,12.9905414505571,15.9312723275867,20.3702379225585,18.4322602878275,71.4614051737739,25.3819351763933,39.1276959692437,15.4950908046289,18.27030980926,22.5897027696154,21.2216671773809,18.3399658052415,18.3982505013795,15.1127559705203,35.718109225954,28.6977682878496,20.2596299885351,16.8505454103082,21.6834767669765,20.5054429357827,24.2330202423032,27.0462952889194,22.5749997562638,28.7582679336777,27.3190124532813,18.193013624986,20.0059079241928,25.5882137167259,27.445883868116,27.3509703004231,21.2524935418077,21.2220670312507,14.3837090625006,24.3620892439103,17.9420616923539,1e+20,24.7290913408017,11.6549699483954,23.766619144776,15.8837663495136,16.1618925214032,14.856090767278,20.0156520037332,18.8764754853022,19.317800152246,17.3138951425519,21.7583424250427,36.291940952826,75.295797067128,19.3683872876222,36.1107893333868,20.0772174614972,21.5145640523371,21.9032563297805,45.5361522304753,19.5917114358182,26.9979988726443,13.5884014555608,14.8007932123015,82.3664682427772,32.449826109403,14.4780565581818,19.8998934133321,17.5578411350188,16.597633993995,23.1897950137858,18.8528638207656,33.3243705394534,42.1938855185136,19.2273594412681,14.8653429293104,22.9086848926647,27.5673526805204,22.1473358271257,26.2453620676003,20.5644871906731,18.035235922474,20.1380703856416,15.2225767165038,24.8716062444145,47.3972282192308,23.3006211766009,29.0776141523011,19.0405814733765,20.7923755132001,20.9423188226141,24.3155585191795,75.1227066585709,19.6503486487888,16.6376432989358,25.4868642472817,71.7860755385,28.1740773519102,21.2544386238071
17.8257579391784,83.293634089782,22.4203898890852,38.913160697313,49.1628909347256,16.8673117951775,16.955582254842,52.1835313285795,22.4334809175434,31.1634045637054,91.3226054374376,19.936076530791,31.9519928092227,14.5052629127962,13.9442708869208,70.8972037342461,19.5449001879293,23.0501215931988,40.0540538406284,45.3224706770904,17.788004461036,26.3992419643261,20.3656346919589,19.7936947935414,23.9537394502654,17.1117830481157,37.7923390116611,19.9217884777382,10.4152278008333,10.9946772981308,14.4891014173819,18.4622181729402,53.0557598684979,74.8447796714912,76.2276892646701,22.6110957828809,58.944587884,45.8305444064225,28.793223596757,29.2575665393048,17.1486115999859,24.7290913408017,1e+20,37.1204359282182,11.6316996053418,33.6377233733335,37.677107836998,24.4167947909912,43.8916279213889,42.9835888395714,39.6420912939043,59.8098130095398,51.3835276986507,20.1098352870679,102.836941479561,10.7847168294939,25.8250950206981,7.71635874380363,19.9815699549817,7.19232224555115,71.5476196675252,30.6076030925455,61.2269746077722,23.3568742824598,32.5959557208683,76.2216040167322,14.5687544480556,21.4736402364502,48.1956469754256,49.3047198846844,31.1893997332189,79.0614529635939,29.7258821259568,29.4072140368643,43.4987187473147,28.7820774662985,28.3928976950905,52.1769452019464,90.673171493993,7.65128747144442,30.4743899101059,13.4696239872065,9.84660633782431,31.2607870561145,12.6905638165617,56.1341888162225,46.2525948253223,44.0355256122483,46.9808500952997,33.207852099052,16.7279384684188,19.108400115886,69.7521813887381,64.7857871444393,52.6506126097093,47.8191236765601,50.7762877089757,86.3389332486999,31.725885923421,37.5783616218104
14.0592197905287,46.5438817134434,9.26148315149256,16.1253799412338,30.5768002727616,29.9948067792325,12.9931774342317,14.9033685113372,18.0115620731702,17.8281860042939,46.576072402393,30.5974968291216,56.3945402528432,27.9389088520656,21.1151456700088,39.6520089166666,41.5977295835394,43.2202874121123,19.3617855414448,12.8986479623358,50.667076333406,31.7300226887355,40.9702879924359,26.5198608013232,30.866564580157,27.4457397531342,26.9000525293334,28.0366648023848,27.2929905289247,33.9024033293599,26.4252653099164,34.8965739796703,39.3737151336448,33.2352707983514,52.1122876972865,19.4434391483351,52.3331220008333,27.2796634200577,14.9530653017718,21.7759907636204,21.0640271441512,11.6549699483954,37.1204359282182,1e+20,24.6281011755575,21.4471061077058,24.8544992226031,12.720445204179,22.2888794168201,19.4503039674048,23.2058159645276,15.9081330732466,26.0668156405555,44.9562530128163,64.1740266999876,25.4584165720827,32.2443587968835,24.0924232204338,28.8176001931128,27.5926648789453,47.8854190998793,27.8035875967932,22.7364955285137,11.2850004053013,12.7467159628899,75.3716170891063,37.6797044165762,12.929909367209,19.5687006972484,21.8682904858841,15.2300862314411,46.3200543496465,38.2065408888617,39.6541641531477,42.4726497347456,13.7625421386349,31.5401966981326,26.4454630323754,55.8521260445416,28.4022317177579,19.2246925158613,32.0253188081808,22.7381258328838,17.6408377177451,15.2422578540972,14.851981625554,64.8199169291569,26.2064393690186,19.6518966239096,29.3928714925982,26.2205515832189,22.6360538660734,31.9646942856666,62.8739764869638,30.0656164358039,15.5248536518765,33.7079786462875,48.4062215022516,37.0630206877841,28.3273581848754
9.58325751955296,63.0651312258286,14.8189140658208,23.6403976428367,43.8801255010634,19.2676434044094,10.8624772441622,34.2162577045137,18.768325003843,20.0416332166336,56.2929625191498,15.1510174814476,25.3470240126014,17.7126967783699,7.36494638391671,57.0171536207152,23.5737696040068,27.6424269688506,25.1511621858408,27.8175033022945,26.4619641487418,14.2138984735409,23.1356959055425,21.7231755990961,14.5711674300258,11.2076751498511,23.8148046418821,18.1382111526375,6.58235890225549,11.1930637616703,20.0561664496564,22.3935556781507,41.7886217318929,57.9997437247363,67.6746576674481,13.6880111989023,49.1457829405447,36.4027131116708,25.84614418438,27.7346960766972,7.15471621367057,23.766619144776,11.6316996053418,24.6281011755575,1e+20,29.2671193183421,26.0623620261234,18.0966360086962,30.8293018110501,31.224702389562,27.4813220741132,38.8558044473857,39.4364084517112,34.5278628866552,77.9079604580095,6.80886317430589,28.8370007693569,8.50290137152398,13.1714073063304,12.0457422173654,51.5192055116541,21.8089159645083,40.5181578791736,21.3844068760271,23.0129874343758,63.8137486785845,13.0735721884401,10.2298391461203,31.9546106658056,37.8271385541744,29.3128978759724,70.0813274439527,30.7784818643287,22.6210822130639,30.885186864234,21.80891290459,20.8290428729837,44.041770669693,77.990210566332,10.4186227605693,14.8825240405931,17.5800785387468,7.32807821772541,17.7862951139631,7.57544316757029,34.5366213287991,63.7816426242222,36.4544971256529,34.6543625423579,22.4116743721,20.5031842218739,15.4329552452903,53.5784939913583,56.3397850952068,40.3898458702868,33.3158372172626,39.7729999155002,70.6773345080569,21.7932168862237,36.0620695432332
27.6103341003707,52.7903630717759,24.9093186873282,40.1483629673096,15.2485379815898,33.8085774959099,21.2111237711797,13.0300166170654,17.1951290395915,16.487301166769,54.5169581485108,34.8159515114025,39.5022550935635,16.3450379562183,25.8963038847464,18.4273716875012,23.2338637218475,22.1122387092726,25.1173949340892,22.5988088642962,44.0478289851727,43.4792452274969,22.30075634166,16.6086436744504,22.6762653806623,21.8929132162666,34.0435171200426,49.1551433393068,25.6887019923203,35.6585845327005,18.4068879644944,19.3642951066944,20.1883439309381,25.2561746797211,25.2963079821556,22.5802672475454,34.0865519619911,11.5683447474755,25.0254302516271,22.2403008512947,24.6917255637782,15.8837663495136,33.6377233733335,21.4471061077058,29.2671193183421,1e+20,17.5181424057488,29.2177143191366,10.2906785050481,23.4501571114733,20.29781280965,19.1314002938815,25.691281318546,66.0815914565391,68.0512478942701,22.0911667870927,24.3132479965255,32.823718839587,21.2663831655311,23.886049777242,30.3019115918515,16.9853565019313,18.635399261512,12.7651614786714,13.5408472746022,87.8877836396579,41.583410477128,19.9673002200819,13.0810778760946,9.14674890508714,28.7429365268678,33.6496651756658,36.3860025166399,37.0636447493565,44.1870768005149,19.9507828956381,20.7216358010985,9.9799708098347,18.1553021226549,35.8053381889976,32.27122443333,25.4147828735282,22.0873861770879,23.9345934519291,24.6687935669398,31.4360940708475,69.0637432757177,10.8638313315501,22.5618140543395,17.7317473054574,41.5569829603751,26.2092616780238,14.9306545787005,91.233167079471,13.8960022098377,19.9309060695764,18.5395667046622,61.1906783760325,38.2664327733355,12.7938645307537
25.5474695711066,50.704018149242,28.3795677418395,20.7657245255208,23.8222555485677,19.9565556702073,12.6639666514014,14.6861120645123,23.2886039178245,13.4079711830484,47.8880079005352,20.9787123339874,22.0683090242031,11.9256622160296,15.8225269856595,18.0016122690746,15.3533443889538,17.3701502196196,17.4652224194919,24.6578173834507,36.3236928805324,32.8425300311362,15.8217180383397,9.79530870568112,10.5189728302559,14.1636689495144,29.874839862557,28.6924528119306,19.1368402116157,20.1327406468626,32.6978943766689,11.1011624324525,9.36328123748382,21.591362901746,31.0438332972787,18.501650748722,21.8338888933503,15.6077692856799,16.0887652784415,46.281756800407,13.3946816956972,16.1618925214032,37.677107836998,24.8544992226031,26.0623620261234,17.5181424057488,1e+20,22.790314800195,14.4861175741949,18.1440060365895,8.94514073321829,11.5263277041209,24.2476453108709,50.4901552634025,53.8335863639763,19.8103063929329,18.9300211316078,30.4043893150893,9.4054778589675,16.1182436788676,30.6555983028488,7.502747624274,19.8227551448547,18.9055492698762,11.7096285402259,71.4329963040232,39.9292248536196,16.4344696467028,16.4287726461405,13.6320841199393,40.1332296591209,34.0713918404947,27.262459923134,22.4781576775094,25.5885553661499,33.5975542370096,15.2114661360034,21.8819466812559,27.7947895165435,32.19665021578,19.5821790745891,17.1434183443561,17.783487445886,17.2927653076003,20.544725078662,28.5297491236996,79.7296323910639,18.1047676455256,21.7615508918732,9.44398877803699,34.5322791410468,16.4849601775063,17.9865552042814,84.5482578898353,13.7029193323929,21.6477503364967,13.0622297731814,49.9942469208675,30.6352952052552,22.270179614704
12.4464692328024,61.3777912390501,12.1955000513686,7.74068286292385,30.2566885485604,17.3204785846774,5.74834325171227,19.7486287546725,25.8463338744251,21.6414001863524,50.1042297202033,15.4629404679154,46.8523537698756,23.2188858450156,15.5262548928195,40.1921932827128,31.8198002119615,37.7986717985253,18.1737426294266,14.9143105853483,47.0477677763509,25.5298361543747,35.9942473970286,24.510230483194,28.7554494533445,25.8235508712969,29.9636058742684,18.9059850569646,21.3014874851721,28.4151183867811,33.9650721907343,28.7179229975912,32.703563296559,30.38014651847,58.4256104771438,15.9492608633799,46.5438951321961,30.470483134484,6.14784415086089,22.3240600823439,14.9922695447463,14.856090767278,24.4167947909912,12.720445204179,18.0966360086962,29.2177143191366,22.790314800195,1e+20,30.0820649805995,21.5831320623958,23.2301182431799,17.5949452626173,28.2930081625814,27.9521177600118,59.7508114839074,17.5102792046284,32.8391918865053,15.3812218831044,25.7696166697462,25.6152939588713,51.8152769151668,29.6655870526224,25.4210708414906,13.4999400781087,18.5209260976198,58.6439097234756,26.6019920865692,17.5180826784017,27.1361745611224,30.8335803403307,12.0409486456759,52.0091810953892,24.8653379230705,44.3707610562975,28.6897222663431,16.4114210262265,25.6700851326224,37.2742342588284,60.7356130701826,15.6309336530219,18.5636433708305,22.4429322812971,14.3965716531318,13.4200930719893,8.93706032578371,12.825426278775,43.6928562452096,31.8328141970737,29.4244591984032,32.594538711561,11.6541249905843,15.0238409228811,41.8056802891053,44.4096262940245,36.3017381751643,14.2315050170654,29.8391858366444,56.1921136875194,35.5753018533652,26.7100795422288
30.6591577291461,49.1299933516557,29.2439539432137,34.372486304381,19.7454225848479,35.069276845672,21.26802660833,9.54384188330842,19.0764762650057,14.33831733074,38.1280894761371,36.198010400463,45.6153062919546,20.415205471301,25.5760623555704,15.4521379447222,31.4133063817328,30.3162294224307,23.3422888169566,21.1932607931379,50.6437976229157,45.6932295231902,28.7915428305543,15.7926358294789,20.5983952631901,22.0843111606557,30.5844341009641,44.847736604418,26.2689626993122,36.9458201527282,23.8511186930479,24.9114374782269,19.3624613337035,18.056049284688,30.6637432724748,19.7302810417568,34.6480945041153,9.98537195014396,26.5000560137228,31.6680188553515,23.3603980526394,20.0156520037332,43.8916279213889,22.2888794168201,30.8293018110501,10.2906785050481,14.4861175741949,30.0820649805995,1e+20,19.2358835145211,14.5499646179053,14.8443684897811,22.3793838894841,72.054751051498,41.8677539165348,28.2648663099142,24.3701556507752,39.1251696475666,20.4251908116933,25.3133505329935,26.0168749397519,15.0641349857475,11.9472459344223,13.1692301916128,11.7780481779745,84.8966151588254,49.6287695143986,20.4718776790717,6.81385833636436,10.315114880178,37.5004154874548,41.1942505638071,41.6742526725635,37.484652872036,38.2158150651507,26.241140368479,25.427400436839,9.61811218050493,19.3616971675436,42.4672418150191,24.7967774327442,28.9852856459333,25.6447199219444,20.5600549095043,27.1287226907441,28.312179072152,93.1813287602563,11.2908080285768,15.642056956134,14.8905050240221,46.3507732589884,26.3171752984074,10.0808335266164,94.5384226503763,9.70928000609175,22.2810355859057,14.0742580643049,40.7797396354024,38.4005102838057,17.8983756062573
28.2408746832513,37.9910261735003,18.6301353001589,15.2457038421304,33.7981579664034,24.9790714960793,18.7199248365324,13.6246815240952,16.6678159594617,16.1266846668651,37.2810219089548,29.6613823504166,35.0947847745378,29.2981750553617,19.720090122581,27.943824357746,37.3323402768729,39.7287619897465,13.069696725227,13.995749602206,39.8042885992611,26.7948459809191,37.7197164112044,23.8033376166655,22.7131574164149,19.794580386135,20.2357368175546,27.5597775643334,28.4458164792857,21.5918307038137,30.1529986677476,32.246359731813,24.1209302704415,19.900250155332,42.4113058839973,20.7652941006867,35.9187055036429,26.4603203807435,26.0333846127262,40.0843422347848,19.7730618366389,18.8764754853022,42.9835888395714,19.4503039674048,31.224702389562,23.4501571114733,18.1440060365895,21.5831320623958,19.2358835145211,1e+20,14.384289026274,16.8948417800394,16.0796540860794,44.4460083127247,38.1350039764792,32.356911728928,28.8385970883095,34.0995835201571,19.3039047182829,18.5805617891057,41.8354765461208,18.3102062849026,21.6272406920345,16.6924973696962,11.8775642399153,51.5545453546607,44.2307140044455,21.1885962673096,18.0027023792795,19.3100210115101,32.6176540514868,43.5903257062112,39.5521372302381,26.4656262660592,33.812492970357,25.6688526600994,31.1033280921804,26.8559124784047,43.6357719974426,35.5290034851559,16.1143144981672,34.0582573086339,28.4163294573015,14.4614354255604,25.9329200187142,24.6254062759286,89.9205472242968,25.5047403568399,18.5842179035967,25.5736252749393,33.372364815422,17.2131317270652,20.0798967349524,57.1392775947361,18.8435835553666,25.3047773382382,18.7393431115243,28.9146977930363,20.9999431827844,31.0305147296398
29.5942822534815,76.6613985974052,25.2862941903771,20.8620774282014,32.7289449641994,27.0998007728867,17.2714369799537,15.0521543272133,20.7158113829851,10.8973478356597,73.0198188887379,34.3259854070343,34.7817877799822,19.1086299400894,17.1971905079185,14.5657378468925,25.7601047139092,25.1627816500547,17.959172268215,19.3170257118182,34.970037786403,26.9584727972163,21.9892712983124,13.8667566081308,14.6889407383619,19.1115807153838,15.6740498805865,29.4828667209855,22.4503767600076,21.3352286871488,31.1152358098916,18.5127432478916,9.47599908913521,23.7248931087259,27.4597322172353,18.3916152127349,22.0041480941362,25.5462969651069,21.7907299736389,44.1171885244143,15.7994718637795,19.317800152246,39.6420912939043,23.2058159645276,27.4813220741132,20.29781280965,8.94514073321829,23.2301182431799,14.5499646179053,14.384289026274,1e+20,18.0666638335194,12.1315665716518,49.6174768109673,68.6316402683916,25.7909045942693,17.3129442526482,32.4368370531428,11.4268534155952,18.2494304255613,53.4820904383082,7.66307575902852,29.9679428239717,19.3925836354666,13.7228436649977,95.841643020997,43.6722977660541,21.5452161417117,14.9704632044048,12.9648596559411,41.194904431534,31.2272758338242,38.6933678168199,29.1988394041245,46.6308191069387,31.1036358591416,22.8551571628751,20.1050989407463,26.1366713328215,35.5438727860718,15.7425459988939,24.7923717178145,23.3380634641813,15.8071426368381,22.4631467412301,37.1430084868202,81.7591463326527,24.960407492254,13.2888298627876,12.0102376499857,36.3031835235833,21.9451969863133,19.9750267654308,92.8836129892293,12.9640115170973,31.7642297168736,7.911079729072,68.8761071393393,19.2158342433878,34.7791238222531
29.1661848332458,42.1970957848422,24.8845341104509,20.9299203239067,17.2174615735103,34.6959873047019,18.7979636665794,9.00533576139055,31.0956366016012,21.6655271341256,34.7830162814398,35.5724168123167,63.2719421634226,27.4652712349077,34.2969385096399,17.4611014099121,39.5626705096473,39.8691991945658,18.874034277001,15.0295023572778,73.0151439082176,51.3260868914481,39.4295895055154,16.8455702363389,33.9078507279216,33.8346722364942,43.7091367835864,49.3547406774778,38.3911965095838,49.4255016089529,40.4124879770581,30.6560247495615,22.8608378138983,15.4161560296693,39.2890336030401,20.981833084178,41.9836542510963,15.6656607610199,14.8882913195929,32.925151273014,29.9967768152769,17.3138951425519,59.8098130095398,15.9081330732466,38.8558044473857,19.1314002938815,11.5263277041209,17.5949452626173,14.8443684897811,16.8948417800394,18.0666638335194,1e+20,30.0999588140931,67.2150409764848,38.6434493218832,37.1959679934554,29.4574809831168,44.5399210799902,31.1183366321414,39.9759079192734,27.4938480240275,20.6570318336543,11.6965349627339,15.5098207103428,10.9841014230948,75.3471709026945,53.8522105411828,23.2073113942833,14.0209043587835,11.3173951481178,24.3920610811554,36.5374224534528,39.3888410196033,52.1656479183069,34.4607225050434,23.0874065042584,30.5725464741787,16.9575271593164,26.8980888714922,45.1526064440169,30.6429746736804,36.2263924510568,31.1721558218462,16.8695089898146,28.4176536797504,11.1810187075872,80.5325666375314,18.3409546213497,24.4354811005738,21.5153827130186,39.73942186883,29.6927125231635,15.9269196137177,73.4782499939305,16.8478713214051,9.09647657889241,22.3543198306749,35.7243471026928,57.7885659903633,19.8397292855245
38.6311532920403,102.296696354573,27.3999720031868,29.3606804215632,51.6565038034722,37.4853984221297,26.0264312789595,23.3101466399999,22.3499227623864,14.9205901467945,129.648293393668,49.6088135012499,42.9560010031699,32.3644275895431,25.5356755326978,12.6353048136111,44.3195456985714,43.4253584348329,17.8853609356063,18.5767856517646,34.8189137026131,31.2980715667957,42.0048617904902,27.7033037289301,26.3454294409784,29.635330066018,12.3209895040131,34.7663290623808,36.9485606023412,31.9576142006862,39.1165812107822,37.8218135620049,22.1911802382857,25.9677582893983,16.4875086022556,23.0967805587221,24.1041661435833,34.6474600388297,33.4218351544642,44.0486984958118,27.0406399416362,21.7583424250427,51.3835276986507,26.0668156405555,39.4364084517112,25.691281318546,24.2476453108709,28.2930081625814,22.3793838894841,16.0796540860794,12.1315665716518,30.0999588140931,1e+20,54.2626097920945,118.656015960466,41.4702180183282,34.3647426464167,36.3708780550621,27.7468348115579,26.0720241951312,87.011484788368,26.2734807210656,43.8805250896849,23.1991595163201,23.3916098094827,152.87205226715,47.6598625711568,37.1219674662699,23.0871359330524,26.7000815132467,42.9201450228571,27.6756618894114,49.1153998113016,38.3847016318201,78.3364192365842,28.44688948785,36.0408013426042,31.0188933287619,25.6213417208864,41.1779680877532,23.5483121187665,42.6305743854386,38.0912480856348,17.8363411411903,30.2850234279221,48.6692068308332,93.19845182094,34.0571180861742,20.822848457565,26.5009914801515,41.8159663105724,28.7910699947633,27.3091325381111,140.750693251465,17.0717981891856,45.6441440369973,11.696593003957,112.769243547375,18.8459120960325,45.1313136446352
29.0691608816286,88.2416688888737,38.0230281012978,30.4669966051583,67.5252300885702,18.0869324524953,20.2926690499672,60.3613317002741,39.7398620237221,57.306729961249,95.6718965580476,15.4740964869682,25.2222823871465,44.0060501701921,26.5813572915598,87.0929254006081,41.4084753242385,55.9857693949519,34.4986635908508,50.6399537731522,25.021829836876,17.0263629102089,52.6418488297786,62.9475641699903,46.7618270949352,42.0493887830292,46.5887622134009,9.76289670354255,33.4929317889092,30.9234383206005,48.5452977297899,46.790864980557,55.6425731328396,63.7165987224445,87.7372980672535,16.4805713131054,68.7047350586012,69.5787971877092,30.695670268165,48.428585242574,25.5078814612256,36.291940952826,20.1098352870679,44.9562530128163,34.5278628866552,66.0815914565391,50.4901552634025,27.9521177600118,72.054751051498,44.4460083127247,49.6174768109673,67.2150409764848,54.2626097920945,1e+20,125.084498767143,27.1589088149899,36.7404184388758,15.5160092036425,40.5980236514502,42.8338182351258,88.7550225092857,50.1891689818242,74.4950708794597,36.5387370163381,57.1927431720062,63.726577615794,27.5137349515432,38.5365897183091,73.0098459020879,78.4843494940332,36.7113204215841,78.9041070576235,29.852275164068,43.7461775899337,46.4058684660599,38.1938074257218,51.3486006359016,87.4399004032471,106.923366643431,14.4056713759068,35.1762988625786,35.9565217781347,34.7000781199528,29.9819694619915,23.0206774766252,48.4447830531768,41.8448441423471,72.5751452100658,54.0068634003774,65.1838031612274,12.1045156871954,32.4684339710421,87.9146536167117,48.2623460911593,69.2664379163896,55.4837385865383,50.7983959014932,102.603992627005,34.9913494628748,54.2124651055679
73.3748945572758,29.8908999489501,80.4059140558146,38.1497047087071,40.2921813251893,94.8516032979691,76.5434355369048,46.5864612196249,106.56740857457,77.3300780820084,14.636837654164,82.2349931178486,102.260230219029,79.1057645070935,87.0591846736903,55.3963115226157,81.5033668473375,88.2980851963352,76.2152349009632,55.8770495007833,157.875666543268,110.788652579481,83.697047551281,41.4750143935515,81.9755535132932,67.4904938423951,114.129592978773,109.231798511799,73.3957133755121,87.7906737004659,92.1438648398394,80.522006994677,55.7437791825754,48.2724132192901,102.919357962738,62.8720165970853,87.84863563774,51.6084164601797,59.7817469861202,71.4273019645987,74.0310228144708,75.295797067128,102.836941479561,64.1740266999876,77.9079604580095,68.0512478942701,53.8335863639763,59.7508114839074,41.8677539165348,38.1350039764792,68.6316402683916,38.6434493218832,118.656015960466,125.084498767143,1e+20,77.1700750742124,72.7822403141181,108.238938416263,76.2159030795873,87.1590893552873,15.6428506060201,56.3950918679999,34.1262071720595,67.2573698407986,42.9504571153417,55.9558934294089,89.519024646014,60.1079722535268,41.1090547999166,41.7788763901818,69.6030595110215,73.45505196825,90.3039617016666,78.8425560375311,49.4492424136876,82.0573132619835,73.8993961491588,48.5003294847093,47.8755690636827,96.5431688833124,61.70409827645,67.6275715850748,61.6159107854474,66.9822935122469,81.4252513328813,47.9922807978501,96.0227823181453,55.9020168266311,61.9551090261698,58.0316202963771,89.5820470060953,96.35278245164,34.7585431951014,70.0936364455552,62.6941793637457,48.4634073056773,71.3953028544999,12.6967885233794,143.60476729608,58.7093301940457
9.41807452737211,60.6837457107321,15.0354265048687,26.1429221487944,36.6836847687659,15.4215584777644,9.17272727368959,36.7254727584542,18.0434051108123,21.3594781901552,62.9606774494843,12.4789488784579,28.2875860665,7.59253480340151,6.4901635429972,50.7847314028514,13.2561674318871,16.1956773155972,29.3556078260749,34.5268831907771,25.3732520800274,18.4026114247342,12.2180406655757,9.39854843950348,11.7754536227977,8.9358802175784,29.9096847440603,17.6591501911362,6.44912814640377,8.09547389170739,17.8798855101285,11.9175915618671,32.8496746360632,53.2106206366228,61.637678917277,17.0692341859238,42.1158081152566,28.4262641436803,22.9106974601002,28.970857823736,8.57414695016706,19.3683872876222,10.7847168294939,25.4584165720827,6.80886317430589,22.0911667870927,19.8103063929329,17.5102792046284,28.2648663099142,32.356911728928,25.7909045942693,37.1959679934554,41.4702180183282,27.1589088149899,77.1700750742124,1e+20,21.9271340534763,8.4420837450641,8.50927399533203,6.32212976253042,46.0471296178564,14.8081629318049,38.3063230949572,18.3001673540643,19.5786112568838,65.5308556783615,13.233574899708,11.7151151992633,33.9081974476315,31.7509682425707,29.5266302539823,62.2925102524798,23.6895807327651,21.9568113833454,27.1857514573585,21.6112148902782,16.1729978569614,36.0377828657904,65.7602414948683,9.75047405389605,21.8723546146853,9.60774099402501,4.61284801284112,21.6780302863827,6.94978873282204,36.9698937799546,56.1440241986257,29.7346857878539,39.9295171179943,16.5276973441378,16.4324958766335,12.0039948653488,47.7404917977096,59.2471940976715,35.8282698288685,32.4960165315723,36.1534669942467,70.7912601154785,26.7527619656767,29.5208433182415
31.1462403900614,66.784580827753,34.3711703136102,36.4087897377862,23.664718957412,29.2938518072738,24.9201244020177,27.9267399746914,28.1995606316485,22.2168068797429,60.5022933982238,34.0076416494722,41.2736543088046,20.3701476568979,26.7962388696405,32.8485735759167,24.0398026006071,23.0955536569999,31.953955574801,33.373951326009,42.4973137501629,32.9906820706982,21.6304064072714,19.2452412718898,24.2787789362189,25.2551281286394,37.6270387129134,30.355447957748,25.8018194202699,21.4001764609065,24.9765514036926,18.9697330116589,21.0999006908392,41.9214652667344,45.417121400173,18.3676854958355,39.486520845986,28.0214049556466,31.7161707614762,34.6611414394573,26.6671808661737,36.1107893333868,25.8250950206981,32.2443587968835,28.8370007693569,24.3132479965255,18.9300211316078,32.8391918865053,24.3701556507752,28.8385970883095,17.3129442526482,29.4574809831168,34.3647426464167,36.7404184388758,72.7822403141181,21.9271340534763,1e+20,32.1537463835192,16.9613870184952,21.69336857349,44.8059557808302,14.4381793493485,37.2128657622356,27.7089662413027,21.6723579990297,71.0817763042277,37.7949710108632,26.7130170968174,25.0239660806391,17.8770150779407,37.5360914316897,52.3052417783753,51.2485016799246,34.5246507639834,43.6743619102924,34.4536586684308,26.9670421878394,25.9690252971228,38.7129053060543,32.7146278665739,19.9792978497275,21.5320067902453,22.3542532602959,25.0355972720276,27.1100117034046,40.3150628712457,42.5972805151989,28.08130992261,19.697375011257,20.9651787650378,32.8466770628658,28.151643322621,31.9039835823889,62.5079852923998,28.1365075860915,35.061022527888,22.301625579063,61.7282137868859,36.6439699727654,30.8129142141189
7.85873354521148,83.260893771035,13.4904876511663,23.0220924235206,47.4974237443482,14.8938248745772,8.72390768624007,37.982853391129,20.2227434803904,26.8234208219272,82.6604601474669,11.7468657073011,28.5441688102867,19.4935848767382,6.37872448591708,57.6340876565208,22.2202127253963,29.9042456769922,27.816001298294,30.4931554276151,21.2672635460067,13.8788611864244,25.2965191077481,27.7288915370576,20.0337282715604,17.4456363777761,27.3525293631531,8.84361382803299,10.038417383414,12.9689758948881,23.7336741336483,23.4656076307562,41.1585681958229,54.0941343794007,63.6268808917406,15.5274295245994,46.6450799041684,40.7525491827181,20.7028214602725,28.6140821272965,8.79042673167378,20.0772174614972,7.71635874380363,24.0924232204338,8.50290137152398,32.823718839587,30.4043893150893,15.3812218831044,39.1251696475666,34.0995835201571,32.4368370531428,44.5399210799902,36.3708780550621,15.5160092036425,108.238938416263,8.4420837450641,32.1537463835192,1e+20,17.7309937503941,14.5429623247453,67.3168993177067,29.7283629084501,46.5020922527207,18.8138833635981,26.6969390221197,70.5006489810826,11.6101198138138,14.0278943564919,41.32964676352,44.5771955794707,24.9948043921718,58.1474775947458,24.2344325248605,27.4863234469458,37.550334213482,20.1332225233078,22.0211766156797,49.7738309233858,83.0134433057109,4.57627951767319,21.4735374623254,15.1729006383944,8.32007138053318,20.7771278858396,5.60389210282799,39.5549240112825,44.6681093155179,40.601002770965,37.1643610821735,32.6295743452855,10.1186861070914,14.8243011653537,61.1806072857298,60.4739456188463,45.8669561393581,36.0753349047933,37.6516060721096,91.1406614859427,21.2992822151774,37.1596134771251
16.3821839372296,61.0001534551767,23.0607058435319,27.6897461473777,35.1000349645494,17.7349574778422,12.208072436377,27.7487151402908,20.0345681229903,16.4134469179954,63.1732762863684,17.7844269703443,21.7959304349228,8.7002690942869,8.32894296752678,29.9616607870797,12.0326810349886,13.8521609891302,21.789406452847,31.5657213929232,24.2350378020363,20.4085809342683,10.1448809583191,9.90673614949424,5.70746845760561,8.28160642066753,22.4544672948823,20.6290239541466,8.7896165236339,8.71574235717687,22.0650063447682,9.39026633086441,11.8451585433573,35.7859511336389,37.3180946224361,15.5067366086443,21.6084152860251,25.3711040247828,25.8063123992181,41.7809292732456,7.3502333623185,21.5145640523371,19.9815699549817,28.8176001931128,13.1714073063304,21.2663831655311,9.4054778589675,25.7696166697462,20.4251908116933,19.3039047182829,11.4268534155952,31.1183366321414,27.7468348115579,40.5980236514502,76.2159030795873,8.50927399533203,16.9613870184952,17.7309937503941,1e+20,8.90420072550378,40.8249057586028,5.7083059668801,34.4267969143216,21.4600084160762,17.3496873287391,73.7515810528439,25.1768150015641,9.78590304680827,24.1903936681417,24.8150208406291,41.1681331427101,35.9797594571676,28.9096086094624,15.5295179220246,29.9288864132156,31.4658052737843,12.5169376748043,32.7196091322597,41.4983462977809,20.3299464499895,14.2183300623943,11.9894879511957,8.51406688017966,17.2923242560805,12.9255541013812,42.2531812839394,71.6001682245629,27.1332627416953,24.7670118235915,7.9986068837536,28.2737713455263,15.5367853551609,32.4505332666715,84.7082413132956,20.9185234695831,35.7599540023025,17.3325287075816,77.2906318198684,19.3354586603823,30.0168066355953
14.6810731689606,74.9032661683814,21.4933742929489,29.5651987316782,41.0911758453865,13.3266285706391,10.4436477863178,30.3675025199001,12.3809176590916,17.4390633245821,71.3507822777845,16.590066266646,16.5364689106994,10.0531544843776,7.48231759861801,37.2343860456745,14.1170452945964,18.9486442926978,19.3987627099659,32.8096425418278,24.7536595751483,21.5568219938698,16.8054113615396,12.366290152993,9.19478764849215,10.1981777901465,23.0513708763827,21.2040275467749,9.72796279275734,8.46874427691825,13.0689300073236,12.5426806173881,22.9046096700501,40.2296914203121,45.6176971135612,13.3374939467269,28.4949742508458,31.2199622498942,29.906056466126,36.6541101169547,8.73765144402122,21.9032563297805,7.19232224555115,27.5926648789453,12.0457422173654,23.886049777242,16.1182436788676,25.6152939588713,25.3133505329935,18.5805617891057,18.2494304255613,39.9759079192734,26.0720241951312,42.8338182351258,87.1590893552873,6.32212976253042,21.69336857349,14.5429623247453,8.90420072550378,1e+20,51.1159526364456,14.0205252792951,42.9975293709376,19.3257461053498,18.9502213865729,83.3064390719355,21.6637829488376,11.099445602625,28.3924484837203,31.7857160856816,35.7589771326298,49.1339367171515,27.6978342528479,14.4256324878731,36.2173706633855,30.2720413428912,17.8368559566524,39.8922697839606,53.8521973124613,15.0487413006437,17.331868474066,9.76873423822803,6.61031740613964,17.3964671120166,10.8021878601492,46.4521993384,61.5208568856113,29.9118295678821,34.3232442655695,17.2576537256389,24.1309965660665,9.62344881677964,36.3520953442087,83.8517316702156,24.1322194533248,44.3331689916371,20.7152295782779,77.5498522389212,16.3042220004849,31.2890764058288
48.1147508130055,28.4150099535361,60.3149675331865,50.8050081129871,18.2493116781173,44.839442855145,42.8735718869026,30.536005131393,52.987524075318,43.378666676611,17.9745555374365,43.4855177473683,50.9571404617441,36.0301566642048,53.483499355428,52.6496270576132,39.9661378216514,41.1992440132267,49.2097303240063,49.5602973485609,82.1670829428667,68.5856961773388,40.5146659757663,27.8644675393164,40.4244805710465,36.1646117855441,92.3067478376314,70.5216318486793,46.2093252119906,58.1791262098721,48.5751811785588,37.6053579902675,45.2713412839721,49.4502269128514,69.9342074191274,38.6998840488959,71.2475627578745,19.2001215567054,41.0272196773389,54.5024976002062,43.2573823249557,45.5361522304753,71.5476196675252,47.8854190998793,51.5192055116541,30.3019115918515,30.6555983028488,51.8152769151668,26.0168749397519,41.8354765461208,53.4820904383082,27.4938480240275,87.011484788368,88.7550225092857,15.6428506060201,46.0471296178564,44.8059557808302,67.3168993177067,40.8249057586028,51.1159526364456,1e+20,32.069488822968,21.0255439369042,38.6940620396148,28.8347533579683,56.1169313624079,60.1716072769417,37.8154500109565,30.6995041498626,23.504447843951,52.2673071166392,61.2177313565691,49.940983451562,45.5100770183485,29.3516253474101,48.9955213399153,36.2274104142892,28.4602865131979,42.117191057355,63.9267791905548,52.9746400937886,44.0254129004724,38.8451791080731,43.7957128067082,51.8950203405742,33.9037607998768,97.6606027583486,20.8363456309797,49.7264154703614,35.5017351517013,65.652499280176,50.4386353756242,35.1623620579989,73.0540304307999,41.659460754328,25.7583321758552,54.2254853213411,27.6101548590186,93.7835366673417,23.3129670521223
25.2151488268878,49.4044750396125,30.0951746473678,26.7616012650424,28.6345078246717,22.7450874855214,16.1391902608637,20.6759806959741,22.5836518033894,12.6908221929454,48.2271893344442,24.8492238327727,24.6070708565927,9.03198358137441,15.3156285690614,22.1689930206414,14.2248647113377,13.9326423804967,23.0366181069962,30.4689946635442,31.5259606794106,28.8715203710757,11.2737199378549,9.32234630060658,7.35966383934446,9.90644939590125,23.9865723584929,29.7564024149134,14.1440648167251,15.0486359743778,25.3008643469261,10.6162822310341,8.41940395205413,31.3773183719249,33.2465448084448,19.1988354882787,21.8304759277727,20.6462178995865,22.8715547080736,47.4253176478864,12.6422369131495,19.5917114358182,30.6076030925455,27.8035875967932,21.8089159645083,16.9853565019313,7.502747624274,29.6655870526224,15.0641349857475,18.3102062849026,7.66307575902852,20.6570318336543,26.2734807210656,50.1891689818242,56.3950918679999,14.8081629318049,14.4381793493485,29.7283629084501,5.7083059668801,14.0205252792951,32.069488822968,1e+20,28.2092288034837,22.7044315090054,14.7058109984933,70.8226206557678,38.0792383426157,14.0683457525505,17.0300688712737,15.2896458157434,45.7387390445491,35.0044982620536,32.4726101868096,20.7928296059647,29.0393886854303,37.9881766285412,13.5446737554412,24.1210364625671,30.6504860764394,32.4033377538819,13.5465738306028,15.8289356994855,15.0370498711183,19.8153650944274,20.6090748098088,37.9413968290086,78.0596678483981,22.8247959785891,17.5448090503371,5.70912689168181,39.6360944826511,19.5967674629385,23.6001516512728,76.6790035813837,16.2515574196727,29.6184426907552,13.8801517727296,53.0588581842678,24.2898792169797,27.4596890138173
31.2173999166833,39.126742056407,33.0243430474868,31.3367475937222,16.8443521071386,39.7170804329128,25.5468964643027,11.2889949838755,36.0217093536365,30.3995031968756,29.4677441864529,35.6061057186788,73.4812732445223,32.4512519950169,37.0657342327667,25.2417955872019,43.1360375813047,44.0591591317462,27.3761699262615,21.5759912762136,82.2653826000112,55.3043972520129,43.0199405542842,22.8287147156055,36.7048695151186,35.4773417101647,57.1959053223043,51.6478277833764,40.1703256621345,49.5741695420799,43.0633873004804,37.1466430114696,33.4931771276867,16.4953252849219,46.285753147863,24.8208060253442,51.2744710876991,11.2921768787456,25.6922291537835,29.3904917780217,33.1339416016088,26.9979988726443,61.2269746077722,22.7364955285137,40.5181578791736,18.635399261512,19.8227551448547,25.4210708414906,11.9472459344223,21.6272406920345,29.9679428239717,11.6965349627339,43.8805250896849,74.4950708794597,34.1262071720595,38.3063230949572,37.2128657622356,46.5020922527207,34.4267969143216,42.9975293709376,21.0255439369042,28.2092288034837,1e+20,14.3711226728988,13.836095030385,75.4968922997983,55.0270277072461,27.8828444761827,13.3981865144998,13.8215066517837,28.5030038675936,50.6667113469476,43.680065484621,49.0218589060798,34.1792183452645,22.5823256260284,34.8124076945672,14.8226114446811,26.1371150266355,46.9292564225967,36.1732032290059,38.7804262463937,32.7781580926475,21.1029729038028,32.9195308963097,17.0425608527199,92.4459726376714,12.6851786226917,27.9520354923154,29.0227793189185,43.4965732490174,35.8725208684433,13.999263253845,74.0422071442182,19.1902253558239,14.4724139109732,30.7143726854075,33.7927963523484,66.8860133230862,15.4063662751154
16.7519149542994,55.4210296595785,12.7602493744968,20.1489799105067,18.78409651048,20.7182148981609,12.6790876831267,10.7707426491581,12.9587882303917,16.5949517583783,54.5624086644914,21.3674603336537,41.1948382280201,20.0725158722514,17.4801997212465,26.123475782277,27.6915921365959,32.0664524484159,18.3128591457098,12.7513574949659,41.2293804296379,28.167660619071,30.1404208377892,17.7576430165122,23.2110321528489,23.4444550288874,28.041225117423,26.7917895551081,21.1331548864594,25.6835996474282,18.7849057607538,24.3921542732321,32.8885058629054,20.5479590438595,38.5727162225373,15.6776707241231,39.3954224663684,16.457559014108,16.1569150204824,11.959214046667,18.1246445250614,13.5884014555608,23.3568742824598,11.2850004053013,21.3844068760271,12.7651614786714,18.9055492698762,13.4999400781087,13.1692301916128,16.6924973696962,19.3925836354666,15.5098207103428,23.1991595163201,36.5387370163381,67.2573698407986,18.3001673540643,27.7089662413027,18.8138833635981,21.4600084160762,19.3257461053498,38.6940620396148,22.7044315090054,14.3711226728988,1e+20,9.84002097649593,75.5166101539374,28.8919688460297,16.6926866114117,14.0437317273008,16.6523096076497,12.2114168546731,42.0347505940401,30.8908187156156,31.4509035633869,35.7189981646887,9.00689185992119,25.6111408096308,14.5573203683217,36.5554859875104,19.9724166827055,24.0149940026286,20.9374220488177,16.4939241310169,14.3178886730144,14.8921558662792,17.9793273115509,55.6017293279072,14.3947068758502,21.8274646572255,24.7685746280755,21.5355270128488,18.0681737041767,18.8439472856576,63.6673848514733,18.0009975255544,13.8990094040442,24.6889245678823,60.0562791932899,30.1541438940611,14.1269352125235
18.536449991519,37.8491184488989,17.7442824704198,25.666532786208,18.7779224269078,24.3976423162938,13.1873343327616,9.13557064976605,14.6112235016085,12.3794768358023,30.1855737430903,25.1411116642798,43.8386329688542,18.6685127152837,19.2595449962657,25.4559794627013,29.0743918040307,30.2135883768548,18.2201381675272,14.5766546108419,47.7023730775737,38.4922189848437,28.8299795494128,12.5809008552816,20.1369324754976,20.6152961865166,30.0111953140573,33.7994123038548,21.9765112979233,24.8883140740944,19.5651987960823,23.5459438292918,23.7342477649418,21.9456581827872,42.6580276789663,15.380693146652,38.969771221385,15.8128289142913,19.7644817863653,23.4026837635792,18.4462741255736,14.8007932123015,32.5959557208683,12.7467159628899,23.0129874343758,13.5408472746022,11.7096285402259,18.5209260976198,11.7780481779745,11.8775642399153,13.7228436649977,10.9841014230948,23.3916098094827,57.1927431720062,42.9504571153417,19.5786112568838,21.6723579990297,26.6969390221197,17.3496873287391,18.9502213865729,28.8347533579683,14.7058109984933,13.836095030385,9.84002097649593,1e+20,62.2830954062491,37.1580362895519,13.2686109536898,11.7215918932601,11.9839841604659,21.7145365354262,40.2957419243377,36.3695093116087,25.3598394399399,28.6641095441658,18.2286457772062,24.6605337183187,14.7333537100981,35.5468581328447,30.3144417227634,17.9793316167307,22.0033572358099,16.3716873688368,15.3211231567707,17.4176812874242,17.4659999599897,77.6492150554548,15.4333356438784,17.4741620290274,16.9589871188904,33.797250484405,17.7978905401756,15.5809792661379,72.0886830804057,17.1549680032098,14.2758017702089,21.1396764009729,31.4077070741575,35.172501269873,17.9169730827132
58.9802678457244,28.1833499274298,82.2463932726206,49.1593803500181,59.3711298933169,56.9539394820513,64.026547900353,78.8492292255416,102.390523447614,99.6855877555242,49.7419330020471,47.2217304958476,76.8421989799846,68.6483638451527,70.169158783998,110.724072742944,61.7520198569839,72.8764483804233,87.8011407412827,82.4170581766167,101.857354294091,66.8752367786739,64.9725172365513,53.528741427034,77.9398137877401,73.4267994307393,112.743297295776,61.7070606294831,58.4786150608326,76.3323759430426,87.8432205820052,64.9480681879028,86.0546540131721,64.6433460255741,106.696339547865,52.1326723060089,111.875829835562,77.1321596582862,48.2606915567817,79.7656456987854,58.5675117821509,82.3664682427772,76.2216040167322,75.3716170891063,63.8137486785845,87.8877836396579,71.4329963040232,58.6439097234756,84.8966151588254,51.5545453546607,95.841643020997,75.3471709026945,152.87205226715,63.726577615794,55.9558934294089,65.5308556783615,71.0817763042277,70.5006489810826,73.7515810528439,83.3064390719355,56.1169313624079,70.8226206557678,75.4968922997983,75.5166101539374,62.2830954062491,1e+20,61.1111015098319,61.5848127431758,87.5765208289181,80.0073264998827,56.9014542148765,71.8439571241134,55.5974638214695,77.5178201166038,36.3168573769439,80.5911323938116,69.1646975806628,70.7904256617533,86.9278488139648,53.8321134522428,65.8696146622487,57.9842478996305,56.1681382820739,77.1901983806207,64.2840222570675,57.3468387232229,41.7749383875461,84.7195820845159,92.0980844759185,72.5996776570481,52.1267198547306,87.6649147208432,65.006736442132,19.8551231052583,102.395930813944,62.694136940533,104.816678737441,39.50893274979,125.1642451387,68.0488925659502
19.3462076149735,72.5192253053679,22.269304551751,29.2704357102973,54.668892743447,19.5964632073531,17.5009274412063,49.5946008282138,21.9596713601461,34.6880624765491,69.1343296967064,16.2013456557107,24.6543272216571,26.3108144160099,13.9742252689338,74.7404802587516,29.8026052802458,37.5445505501336,36.8348543705488,43.1001795423342,22.9161848831097,16.6121440231594,33.398264752532,37.9303101974223,26.3577397121726,23.5250981517185,34.1294319824641,18.021704724642,16.4729902507117,19.0170921122964,26.3794673211793,30.7043117219742,53.8128867825291,66.8554751565637,77.6507376220618,21.0498156115932,61.3865421967795,47.9500484932656,36.9910743419466,35.33206156742,15.308625594005,32.449826109403,14.5687544480556,37.6797044165762,13.0735721884401,41.583410477128,39.9292248536196,26.6019920865692,49.6287695143986,44.2307140044455,43.6722977660541,53.8522105411828,47.6598625711568,27.5137349515432,89.519024646014,13.233574899708,37.7949710108632,11.6101198138138,25.1768150015641,21.6637829488376,60.1716072769417,38.0792383426157,55.0270277072461,28.8919688460297,37.1580362895519,61.1111015098319,1e+20,23.376453296729,51.844258775416,56.8737545364387,36.8316044206716,71.6093906327822,33.0175907636153,21.2367272137871,27.495778141738,25.7164134887677,30.0728214749937,61.0428203708476,101.542407008482,12.7821981122984,29.6279515931124,23.36481554315,16.3263978436781,28.6746683627983,14.8613173852341,44.2912823201832,61.0772858796793,48.7153506416342,43.8735940917562,41.196625090665,23.3172303004001,18.317935810211,77.4597136998039,54.2350304244677,59.3159036072288,42.6187018827479,48.0462598830625,74.8853522120537,26.7248932862999,44.1855384943388
7.54067018992119,35.9736471816079,9.46465457536754,19.25953927168,30.8849780793771,19.1085150458338,10.5109755824416,20.8481522956337,17.3100079064113,17.9827140657679,41.4529854943228,18.7507202842081,36.7042671976624,13.7538140540694,10.1028924208914,46.5693940889286,21.5314409945923,22.5427046252826,21.3637198309011,19.0128412246507,36.1372684932505,23.5480584661459,20.3701689823654,13.7686061447487,11.5633317282568,12.7242971123954,21.9986261408106,23.6742109826948,11.2678625632576,19.3234650343546,21.7242642613476,16.2389372772712,28.3393353414157,41.9987142839576,54.1003456522931,15.8804340519786,38.3734472473338,24.8136509651772,22.555749992705,28.1155668141155,8.85600333312927,14.4780565581818,21.4736402364502,12.929909367209,10.2298391461203,19.9673002200819,16.4344696467028,17.5180826784017,20.4718776790717,21.1885962673096,21.5452161417117,23.2073113942833,37.1219674662699,38.5365897183091,60.1079722535268,11.7151151992633,26.7130170968174,14.0278943564919,9.78590304680827,11.099445602625,37.8154500109565,14.0683457525505,27.8828444761827,16.6926866114117,13.2686109536898,61.5848127431758,23.376453296729,1e+20,21.1308666230793,21.8690174355287,23.4514775313716,50.3283092899092,27.7724469819192,23.2424524580804,27.0772717208054,19.333044047888,16.7809779023136,29.8351179042588,52.7911129492068,17.2007954148016,16.607510646293,16.5820411275894,10.2695197043837,18.7901325384256,8.63468547704899,26.8722574831612,62.7927508086064,25.669254124099,27.6431822076901,15.0386534390973,20.0367561247093,12.4419342495819,33.3758131466667,53.1774451196831,28.75544483659,22.4798699385461,31.2270372686953,50.7040036518501,27.0246821081447,27.8872231101472
33.0629330031731,51.7191963435236,26.4083236738561,35.5585716527126,23.7471530395818,40.3333400561277,21.811252035144,8.38608096855596,19.1193209515772,13.5336182064552,35.4351522028448,41.1094154226484,55.3611074048552,25.2433324090394,29.1446229571466,21.3686985434456,38.9247514631872,36.7649423599845,21.816708894736,16.3679246663327,59.8233403462861,47.7880703969706,36.0089335636422,15.8504645943598,25.3828529875811,25.9899906147006,30.4185549562244,46.6507978542386,31.0845057340514,39.2831914430141,26.426844402159,30.9547859020746,24.5032318423779,24.5609319109092,38.993246286862,17.4268680406186,44.1338712485906,13.9586270119106,25.4779052383116,30.0162509631549,26.8529768321904,19.8998934133321,48.1956469754256,19.5687006972484,31.9546106658056,13.0810778760946,16.4287726461405,27.1361745611224,6.81385833636436,18.0027023792795,14.9704632044048,14.0209043587835,23.0871359330524,73.0098459020879,41.1090547999166,33.9081974476315,25.0239660806391,41.32964676352,24.1903936681417,28.3924484837203,30.6995041498626,17.0300688712737,13.3981865144998,14.0437317273008,11.7215918932601,87.5765208289181,51.844258775416,21.1308666230793,1e+20,10.1073943088145,32.9595524603936,49.7533278667066,47.2666110357438,44.1848604115019,43.2329435932045,24.1281804615514,31.0014316603789,13.1465634506488,25.8902679507019,44.5011105649471,21.0309369344066,35.2625106155327,30.500251065798,16.4483132126855,28.3516149869925,24.4425591967435,93.8471772998962,12.875061363353,14.6247539897096,16.7895521040845,46.6739403984275,29.4214359633606,12.484970080655,88.9133393992261,12.927416229344,21.7092737510655,17.7801463056948,36.1606165563518,43.0852583520373,21.1951858740162
33.2537347847102,38.2942663089018,28.5629566539573,34.3668249958913,14.4603845691316,39.8503954618476,23.7704945332701,10.4404286472431,22.1712405347291,17.9916332465749,34.0195014301423,42.1554803165465,57.4664204138524,20.2330819090571,33.835151498271,15.547008986262,33.4724281812832,28.1063175375264,26.3538104890916,23.291365397702,62.0737499346573,55.5521647720119,29.2232207249482,17.1192855835528,28.8478611639167,26.3992761593085,37.8510508453419,52.2668346414914,34.5858336370928,40.6251995694767,27.2540164430938,25.6332992515548,17.7093627042104,22.7028047212289,29.2185072740388,22.4607133830355,37.8075611488591,10.7840881699413,23.9213508122493,32.2060339841409,30.6944928870688,17.5578411350188,49.3047198846844,21.8682904858841,37.8271385541744,9.14674890508714,13.6320841199393,30.8335803403307,10.315114880178,19.3100210115101,12.9648596559411,11.3173951481178,26.7000815132467,78.4843494940332,41.7788763901818,31.7509682425707,17.8770150779407,44.5771955794707,24.8150208406291,31.7857160856816,23.504447843951,15.2896458157434,13.8215066517837,16.6523096076497,11.9839841604659,80.0073264998827,56.8737545364387,21.8690174355287,10.1073943088145,1e+20,33.1606732982586,33.9853192799877,43.9806312988476,48.9330881805549,40.7263295575609,27.9018657313548,24.2172259660956,10.8606169604804,16.3196570615515,48.9518887256615,27.2504000755845,32.6857717856284,29.6734861830467,22.1210590140747,31.4229829031127,25.6621614412646,80.7998682335797,12.5306346565133,14.3494559389557,16.3699905188459,51.3828076163629,32.3715521100286,12.5284536893397,91.4982404697829,13.262203910788,16.2936083793206,17.1651483049733,35.1012940886033,49.975328144433,15.5585288006395
19.0870444290419,45.6643010028951,15.678375351863,23.2223332851699,26.3556808767223,24.5029692398929,17.0883702280317,23.2877399813703,23.0916616349436,31.4999164443249,43.266881988528,27.7497880687402,59.9146334268094,32.0131697739564,29.5454873281667,57.2683236873809,41.0697366476464,48.1720552094286,34.9266592784484,21.2562249452388,51.2681836943084,42.6583218498045,46.7848345480037,33.0795000190331,46.3851760484173,41.0265305822408,45.7493162268083,32.5822982448081,32.2154968036235,41.724787262381,24.9494379226475,39.303727976897,57.3215292446438,44.8520860295614,72.8100222264604,23.39852420416,73.285383990824,34.2308495684876,12.5139712102935,14.4407430271232,30.135153436031,16.597633993995,31.1893997332189,15.2300862314411,29.3128978759724,28.7429365268678,40.1332296591209,12.0409486456759,37.5004154874548,32.6176540514868,41.194904431534,24.3920610811554,42.9201450228571,36.7113204215841,69.6030595110215,29.5266302539823,37.5360914316897,24.9948043921718,41.1681331427101,35.7589771326298,52.2673071166392,45.7387390445491,28.5030038675936,12.2114168546731,21.7145365354262,56.9014542148765,36.8316044206716,23.4514775313716,32.9595524603936,33.1606732982586,1e+20,68.3740732564005,33.9445851345299,52.6427640369932,38.6120893679362,16.2107908463449,40.6994036758547,33.6280743606647,77.3570958705459,23.1864961286598,30.0379114969576,29.1019004595297,25.193315530056,28.0127442172602,20.0721038780386,16.117611206271,35.2047496254218,33.2600820645374,30.2010064090705,48.0010027991136,21.1463447074007,27.1747350093411,50.5815180397195,45.9395623477092,49.4952405200241,13.6711557851205,47.9494201609724,49.2269552410085,52.6346934211993,22.6789347756563
