1e+20,13.9280894320018,1.83077208941316,5.60131340111948,9.22705472587375,9.02790621539015,4.02895134809089,4.88747609877968,9.94280680155181,9.14586384146557,4.98683600157148,3.69107825310054,12.1867312469286,10.5541119493482,6.62563061341363,9.92441290218898,10.0602472430666,9.95988990189121,6.96431949207512,2.40563482265634,10.9510564952748,8.23937956956784,9.04495385683891,13.6624701376918,9.35430009228829,12.0512996957707,8.65514194404132,6.78687944871382,9.12434069511242,9.53123276370452,10.1758952316597,10.247446324529,9.54117502690753,9.1899225047216,9.17388975671575,12.6828311723518,12.4037602342734,8.99368951063018,5.15287238142357,9.57556096060698,3.32147722296605,4.25035207337122,9.33029731430541,2.65558636769776,10.5377040392742,9.26828054010116,10.873868819917,7.239911818119,9.17035864508432,10.7603038985173,8.66185887057108,6.56391073949323,9.07695165195538,7.6161185345243,8.98036212301717,8.53565844086197,12.3291279439333,3.62484326747024,8.42961018650504,9.49078270141137,9.4199015745946,11.3627662173906,5.76936533082192,9.65134089067488,7.93369851777504,12.0666095146331,8.64745191042073,10.0134057752628,8.7994651335944,8.74429634853914,3.88434439448075,10.0209431980087,5.0188705441835,8.89358679001703,10.2240762253837,9.70888576756685,10.0776877634438,9.90878325221935,9.33009328077805,3.53327868210485,9.04571094429921,13.5915811413263,9.43720314433371,6.89055475434491,2.62077784594162,3.74512507270237,12.2175908701434,10.0170247944658,9.20660849960132,10.4941184790035,4.29186971120735,8.94355695700529,7.9881290411912,6.96569088412224,6.36424140273285,2.92393874841877,12.9826049777373,5.93565775417843,8.8257480305194,10.0102042343849
13.9280894320018,1e+20,13.6990073014462,14.1688213216185,11.0903045372553,9.94671168932324,14.1792013141471,12.781674035614,9.67186703988807,10.5509656413418,13.8409888915166,13.1402287495953,7.34738072793124,10.8665079035983,16.0816884843057,11.0532138045323,10.0237689813747,11.1433718073681,9.45437317478107,14.0751481597923,7.05758931392781,10.0471827392384,11.2070880623409,8.55869471487423,10.4168997117002,6.1705727481071,10.8008923741099,12.597049284846,9.80152134766276,10.432160503395,9.91724266966871,10.4862514712802,10.364087550328,10.3547388856494,11.5426586023435,7.32893670391371,4.59695439002358,11.5183094656038,13.2492518439567,10.333457950468,13.8554711703612,14.1002725761929,9.93322171044082,14.8121764278313,8.00833016332936,11.044843849228,10.1438784276318,13.1574251981141,11.234647536661,8.96505707290727,11.1969008858676,12.5131211595885,10.7626741215878,11.7984112603796,10.9130397452773,11.0655228954832,7.34557786694577,14.8636221478575,11.050617294343,10.2357447052381,11.6430179328491,9.86536762503727,14.7574651977128,10.0106122718291,10.4830475887361,6.7210881053694,10.209036076406,9.36666097006646,11.0474134518226,11.61534636275,12.920785593186,10.8708374444518,13.8774610736953,10.1676786977937,9.79622914108291,10.0020723294977,11.177560713989,10.0597509649868,12.1386728840361,13.145843103745,9.77606743117681,4.39453955429977,11.0313817768953,10.7771098487773,14.6014425712313,13.3780409757332,8.06938418578028,10.5411534044297,9.57970374141459,8.17122601791589,14.8965682762112,10.2429644879648,11.4677450497405,12.281215129504,12.6448276770139,14.124103475312,8.04870535401694,11.6571607282202,10.4969244629756,9.93518922208584
1.83077208941316,13.6990073014462,1e+20,5.74622932279193,8.95784445708503,8.74714651308408,5.04475471354298,4.90460286614009,9.67910879471239,9.03921737445404,4.69192913800308,3.33365768677191,11.9299193687609,10.3554973649664,7.20812132491056,9.87592164680181,9.91451129188007,9.75870556033054,6.91821132700925,3.31275893884623,10.5745577134408,7.98392353322434,8.92780057645803,13.9771979499233,9.06679816626189,11.9071040104757,8.41724947787022,6.91316819808877,8.63768764259399,9.20988196059267,9.85703402204036,10.1249391069221,9.51873734364422,9.02500964057501,9.06439787504984,12.8244805752991,12.3842201753856,8.80025683366367,5.45296237542879,9.31771921370751,3.54041158546497,4.78755158657663,9.04989317392893,3.40682971275485,10.5292259479286,8.958814165709,11.0744096988917,7.59466345126721,8.94681833440973,11.0677554693748,8.50226356972649,6.17502139903604,9.01647308058694,6.86424738146179,8.80571994593139,8.26234319330902,12.491312878809,3.97118343586943,8.12561952507144,9.24699018230349,9.35450227525445,11.7811244769097,6.50497292325421,9.35787608736728,7.46845697060059,11.8928094170402,8.3289028008598,9.82284108687582,8.50216955307441,8.70156447677671,3.91193614395297,9.69531738873644,5.66556876088576,8.55760549836257,9.81390795793555,9.53309126407384,9.98264471852405,9.72341523716259,9.17188199295995,3.69391997249044,8.92267129085147,13.4511467994035,9.41581142130564,6.78837525309091,3.40777985783236,4.5222714861491,12.5916157434782,9.97334302365063,9.36026436288067,10.4443551691565,5.20839972566482,8.48452626294374,7.88640587657253,6.08553853576282,6.59213702315619,3.76013210179178,13.2389620069118,5.69344727451876,8.48043346281182,9.85087216452676
5.60131340111948,14.1688213216185,5.74622932279193,1e+20,10.4922396424114,10.4024281502369,5.30857867050563,7.545573313185,11.2298683694219,10.380682528797,6.99508548409543,7.03997488529321,12.7552797982926,11.0454416748593,6.54795678204011,10.6245566185488,11.0877779643104,10.6719278117003,8.27525621046457,4.99753263555602,12.3358597694445,9.98814616881399,10.0640089747246,14.7226325723944,10.5883699980987,13.1076382887642,9.77415914297475,5.71226368993606,10.9282279971301,10.4692218723222,11.3767994694966,11.0273337565718,10.7397402087532,10.6100410787163,10.0543555817366,13.3552504944741,12.7508592866179,9.79834126318224,5.38238007982654,10.7253380979462,6.10236251454924,6.34456197880424,10.4864947973578,5.27034455411829,12.2964396500176,10.4578775095338,11.7578527409003,3.64329928228913,10.1800009129464,12.1245589596749,9.37291017377894,7.71712257606211,10.1459188347119,9.84081609517239,10.4136393078029,9.84759458658429,13.1111994088237,5.68296328394461,9.79592670912601,10.5783465715014,10.209801573585,12.1693782406678,6.20776550929826,11.0522892050653,9.96674218596742,13.0068372963877,10.1600813721163,11.4867955172824,9.90776016114585,9.54828965335257,6.97322798012239,10.9410909674353,7.54522331946239,10.3475462569335,11.3620600758581,10.8006340812218,10.6399032974041,11.0690368757768,9.9407035002714,6.28164061780686,10.6909103643027,13.8296182443753,10.1169618864972,8.61785856120819,4.81123694347665,5.15943026361865,12.5702727675632,10.9444984570255,10.5901694863816,11.2608159780435,5.47764778102376,10.2221350160019,9.90088756788827,8.62603662928312,7.9143951358545,5.16435399842019,13.9272037076775,8.99358993569363,9.95135505312233,11.5432130239445
9.22705472587375,11.0903045372553,8.95784445708503,10.4922396424114,1e+20,4.76800125899197,9.5108862881124,5.99757425926888,3.95522923474018,4.43416782828768,7.41944786911535,7.08794817305922,11.958414721665,3.54764443638549,12.3429028798728,4.70726082525429,3.29918226944321,2.98672207738496,7.66305607113129,9.03443048676278,9.9692673918334,4.60017801365125,3.95903185491754,10.7492303728304,2.54091058403312,10.2061143025272,3.8070112554934,11.8475133525069,6.18802212668508,2.45971785210413,3.16231904424602,3.37277787592344,4.06275046559212,2.81292143654715,3.57507149009176,9.52529949055238,9.59806165619607,3.37679698919125,9.85801037537446,2.37581273235185,7.70777459789098,10.571033637602,4.04338788922705,10.3649454614819,7.71997961097784,2.67635491322036,6.64546348286577,11.1859203916616,3.94406957427301,7.68860755356378,4.36854788262088,4.85285852181422,4.38634059534263,10.1086919267003,1.83227297733855,1.85659974345667,9.03445673998403,11.0401892816132,3.09593942286693,3.49638384383883,3.30389393473405,8.33080337728899,10.332541961839,3.24870958020092,3.92164887502241,11.2511362887373,4.05464689919445,5.21595887221743,3.79808291006129,2.52308174698577,7.89297906793271,2.54093605027454,9.92356653489063,3.87580637582778,4.23220616676215,3.81652799283975,3.15667323931685,2.72731943977341,3.66281897805763,7.72331436597295,5.55286363101694,11.3015510347899,3.09781764768225,6.04424546014546,10.2022875723023,8.75496013668405,10.3473009013155,3.12925259481962,5.51136803343639,7.279893197338,11.3094422192643,5.30037656206779,4.00549750314496,9.93715389736437,6.33034166390515,10.2317797812145,9.27398299552622,5.43991868711683,3.81236383539354,4.60533906733816
9.02790621539015,9.94671168932324,8.74714651308408,10.4024281502369,4.76800125899197,1e+20,9.50372513138182,6.81165483533371,2.96328507940397,5.72557991642067,7.9163829168302,7.27010289908854,9.59009320748298,5.36452616396054,12.8029338646235,6.72874771274866,4.05511902176358,5.2251537620719,6.35488741731409,9.17105726090244,7.78017298104145,3.72387917175348,5.31488212262803,10.2656994618479,4.48475879859008,8.20794481746866,5.05200542423444,10.9164691429314,5.00844637241088,3.62838962524894,4.08521321035882,4.60753826344256,5.59401413958362,3.99023135289945,5.90352159314428,8.52978979262409,8.17008128055769,5.54187950478364,8.53138640099823,3.93711290154966,8.17088489080438,10.0140613135344,2.97672345796775,10.3347132698982,5.91629228025749,5.09410181952167,7.55683443652903,10.6898787543454,5.58637860400997,6.99441886744066,5.94490761840438,5.71938777583655,6.03399572923346,8.08727450186188,4.78549322148723,4.04779163279932,8.40931411664554,10.9049025162355,4.76029523925862,3.05938538538212,6.02586589722147,8.50685073988473,11.0109567579435,3.70119742228407,3.13931062437027,9.13886969215443,2.28642397528188,5.26735005002314,5.24475836100959,5.38811899265504,7.16280355950697,5.00181201282761,9.38985331837659,2.45694834416542,4.55856078383573,3.86592507399158,5.64257840787135,4.17166485006787,6.50770985479298,7.23333783150023,4.99856423461633,9.90606742458943,4.96935881340478,5.60900632438524,10.1126337373157,8.52275134265435,9.54968096317232,5.04535078871055,5.75500197061923,6.81378136717452,11.2447953758556,3.67075419898023,5.84805638308207,8.00753935754389,6.30160425362291,9.90108581885449,8.45250376238884,5.27984201983425,3.12039667063445,4.49607656946491
4.02895134809089,14.1792013141471,5.04475471354298,5.30857867050563,9.5108862881124,9.50372513138182,1e+20,5.70923744732346,10.2580728800456,9.46808758295283,5.5056686064546,5.5774600382989,12.8166557303499,10.2614534444419,6.44033563056907,9.76331235729787,10.0151338535343,9.71715584063194,7.74295073438095,3.168313532328,12.2521917753174,9.13739511787991,9.02811102862798,13.0503199015098,9.76055817129672,12.5573864994328,9.1809908266718,7.43749241530849,10.5558228993858,9.72796595798395,10.5782774356591,9.99436066649539,9.5372190280035,9.54223166810137,8.94716019577615,12.0971251025951,12.4132991290866,8.91404860620692,5.19032728761066,9.81886716658741,4.06220360487483,4.57153528712647,9.7151587219,3.62924062735019,10.6795596133591,9.67403508080981,10.6248868600156,6.41679226710788,9.41308960783254,10.3955765420105,8.8569212212766,6.95242820043966,9.21602144103752,9.80250290550618,9.27697438569946,8.95033394578756,11.9315591167463,5.10882398871305,8.96674265666377,9.77094353766443,9.1645069439433,10.2526132072148,3.91116552417884,10.1439441581823,8.94614951902418,12.7937631632518,9.25624858650805,10.7520202590942,9.23093369270723,8.47472057524207,5.00939412933998,10.2748935405965,4.94180031144178,9.39435588400335,10.7190743029974,10.0984384566224,9.65566601848625,10.0891673862669,9.17411265039302,4.68893627074055,9.87741346932797,13.9448873033809,9.09295473672962,7.04512620548822,3.40408001947904,2.50249876547918,11.296153556779,9.86387387972625,9.54599665290767,10.8733036203432,4.73070455193953,9.56696082070964,8.42486647574997,9.0059532165682,5.83875689089497,3.26526196863782,12.1942543714784,7.25664840206958,9.28286263759007,10.0666308029209
4.88747609877968,12.781674035614,4.90460286614009,7.545573313185,5.99757425926888,6.81165483533371,5.70923744732346,1e+20,7.21548606503162,6.65048065609107,3.4578718433511,2.73061005954365,12.35764675986,7.4557723831667,9.34642255657339,7.11952240862889,6.91300900153477,6.71129588963565,6.33874027760907,4.86694591648413,10.5693613565714,6.3377029889227,5.62292829880294,12.6855709856854,6.4758565307436,11.5399890816092,6.23708310679642,9.54422102363712,7.08353446552347,6.34011883571398,7.32674963870689,7.05288108156384,6.6878354292955,5.95232252298728,5.63526499568384,11.6041369698354,11.272147311015,5.97864268012064,7.10199587215102,6.5917691725013,3.32739701573367,6.72486566228785,6.81801814719913,6.3325781239887,9.37288324005056,6.01278915627114,8.9647628636278,8.95848778270958,6.30964706532899,9.67552546406515,6.15554037041809,3.76811797728291,6.38523864516957,8.55401584646882,5.74454573406784,5.39818837966419,11.1032188169767,7.40233948431952,5.76610209768641,6.56083692077811,5.97764205425625,10.2036039475552,6.65620842919956,6.7196999932004,5.69666583924374,12.0918269471742,6.24317654295051,8.11847899107658,6.13391647490994,5.35121113670508,4.31946201616026,7.12203261915355,6.62255727782261,6.32030043487044,7.40354501635298,7.2181097313543,6.59444973759462,6.86864660437075,6.04959855292117,4.02653932283154,7.39888075445023,13.0007676048347,5.96605220447922,4.75021110579157,6.13778281618838,4.97529364374751,11.3236607839953,6.78647303140323,7.32478873628652,9.03218266677967,7.81675275899224,7.15486993570713,4.20896810459111,8.19374576105028,4.17892800553381,5.91412491898451,11.4985455026546,3.51033485000775,6.32722730757446,6.91184306903494
9.94280680155181,9.67186703988807,9.67910879471239,11.2298683694219,3.95522923474018,2.96328507940397,10.2580728800456,7.21548606503162,1e+20,5.56626723587196,8.40120934554721,8.1094553196553,9.71795588084986,4.57680396080389,13.6887740767898,6.23586578350197,3.05045216130214,4.47664727562526,7.1825229576447,10.0059769374684,7.97371814648698,3.7253666971021,4.64595815218421,9.99125142912438,3.55971812324813,8.32880018380689,4.9203061746401,11.8303348058281,5.06818106259263,2.84303075377051,2.84981115599257,3.70696418418954,5.11519291714448,3.18840965798899,5.31427768622307,7.91136747254127,7.92120756720829,5.25264713901813,9.45652859914951,2.82646787753094,8.93976969080568,10.8714296275286,2.70529056665353,11.2636222251729,5.59777640837998,4.73894719213877,7.29514554088314,11.4813371485557,5.18344124122449,6.77191020153441,5.80106156754534,6.15578555341778,5.74627133720755,8.84847934699201,4.27377227987892,3.547248977462,7.85067902659983,11.8678105165055,4.59905662486127,2.39901232767404,5.40877769619723,8.21357588378775,11.5189765516222,2.88972453080778,3.30166601403638,9.41088681512258,2.43457300035759,4.77082962613578,5.06186549417688,4.89184912071198,8.00681632350044,4.23325559150997,10.1827685894894,2.44881279080935,3.66910684471748,2.89998144538475,4.67941752955796,2.83844010722143,6.14371387727237,8.16398249911673,5.07115097204996,9.73216397263604,4.31178762498468,5.83568143693505,11.0578765029933,9.25878210733834,9.37587010370996,3.74050309089103,5.45910871092429,6.76274268739464,12.2174543183625,3.57585837451292,5.60955265790393,8.91707532679745,6.69833556515579,10.7612878962687,7.86375802719252,5.83702995085448,2.76931799960073,3.29262517065715
9.14586384146557,10.5509656413418,9.03921737445404,10.380682528797,4.43416782828768,5.72557991642067,9.46808758295283,6.65048065609107,5.56626723587196,1e+20,8.53649274106911,7.58817349568492,11.8180145716767,4.19884597947948,11.94337552156,2.26665987074141,4.54439346912788,4.54232943793915,7.17651470475825,9.0575356166533,9.75725477891726,5.11853720497257,6.27720198190552,9.14999675243806,3.49411779601549,9.5029076723363,2.55253265364957,11.4035622868982,6.30566285222455,4.83588254384025,5.39003797947833,4.51235275034902,1.66402141197844,5.15888672506151,5.72926968767422,9.03880954695929,9.23963121540553,3.09550387477532,9.56369723054704,5.05475068711768,8.09166859623731,10.5746007735802,4.945333414827,10.2399609540021,7.49796840166356,4.87978800871923,3.86758620157444,10.7965449991101,2.75019619905244,6.79071599414272,2.34189566996077,5.79296145758204,1.52418951088413,10.6173656697579,3.66691641728593,4.37137306293609,8.28484971237045,10.7025769565385,2.72187655409121,4.91974983347273,5.42666939494631,7.03654857483625,10.6133442081795,5.48145895657326,5.67497945349003,10.9567389523904,5.63268369189416,4.11480322945453,2.3181648118766,4.1516148899868,8.61936566964036,4.47792456851593,9.84260938379383,5.48367002645506,3.86755796646148,5.70333922471764,4.97933427898492,5.23992990312838,5.41242654066631,8.17492689592385,3.50195769646689,10.5447068188967,4.72802920356331,6.06359759625899,10.0015645874849,8.6450549647323,9.95501457454945,5.16413168412856,5.34209492396353,4.99750388280391,10.8582243233874,5.81960592941281,5.64459447571678,9.87940659540169,7.18286578517558,10.2287810350818,8.58629511834969,6.36287339122416,5.96719468876489,6.57958328332047
4.98683600157148,13.8409888915166,4.69192913800308,6.99508548409543,7.41944786911535,7.9163829168302,5.5056686064546,3.4578718433511,8.40120934554721,8.53649274106911,1e+20,3.20910764447903,12.8723794860885,8.63338514892253,9.17921550391712,8.72005010088786,8.36376928717503,7.96347457789947,7.69944881815559,4.95345185777358,11.6582275569547,7.78992777121999,6.45040375401956,14.0473007272348,8.09112999770895,12.6090262963986,8.00445998766797,9.68239037160797,8.56395252359923,7.60302332481393,8.55887813396494,8.4101696632679,8.58094674415475,7.47487361706461,6.63212272503015,12.6922440829923,12.4907026315014,7.39698932567376,6.67324689146514,7.85448338579572,3.00118258011648,6.31372705558492,8.1036222521436,6.0673838663066,10.4157226442081,7.25114832984238,10.8480161103042,8.82353865253665,7.78509323911763,11.1183063230807,7.87372957003855,4.28291439145354,8.26958430411274,8.16327975811296,7.45676676944287,6.77938897126054,12.4724675593669,7.24333058356312,7.35045206566298,7.87201301875453,7.17741742764853,11.5024913404922,6.43421519662008,7.92050879563203,6.75213412001396,12.7401516846376,7.36685881241179,9.87619947818242,7.63262788830811,6.84642620781957,3.96235773956847,8.42231244864062,6.43948713623216,7.45779523673655,8.83357158567675,8.44802649493485,7.84257008931634,8.20386262691198,7.09311972020779,3.955066169848,9.22243378718545,13.9886133781978,7.38402165052128,5.67243776048424,5.90130226251874,4.97278925633663,12.4111704994573,8.20824008542332,9.36867876408523,10.7371090430538,7.89535576080076,7.85009383822205,5.82281263138479,7.7303706604579,4.16589452424572,5.54543868957491,12.601448530017,4.65266698915411,7.25210403129144,7.91676955993409
3.69107825310054,13.1402287495953,3.33365768677191,7.03997488529321,7.08794817305922,7.27010289908854,5.5774600382989,2.73061005954365,8.1094553196553,7.58817349568492,3.20910764447903,1e+20,12.1697255098791,8.69288809025071,8.50623804168591,8.34498234211748,8.12291481039439,7.97586223679783,6.41390508886453,4.2069149542005,10.2618834152054,6.70705237823778,7.0071534447921,13.2722790434716,7.51467398124474,11.5766408794454,7.00093833109006,8.75037667483638,7.27750184341859,7.4144698083766,8.22945315664702,8.3635053990485,7.89952875671786,7.08945493400145,7.13335635185249,12.2968834873596,11.8043683770777,7.11391919440721,6.37368147473179,7.60554346323976,2.64376044245484,5.83149665738141,7.53364062064838,5.24925069149357,9.64001138559328,7.01016066399857,9.91497167281316,8.65414308117068,7.3548822974362,10.2472827382808,7.12430582180025,4.47408826409985,7.53632941965486,7.31887977260293,6.9309214706301,6.44417920536524,11.9089000867369,6.11173888930115,6.55615710473682,7.51866981376451,7.42337710039418,10.9715959273409,6.83843001983778,7.62597888736195,5.92113176618547,11.7391124317929,6.75389738443258,8.68510658904942,6.94719516684472,6.86423644254717,3.25528844329817,8.00808730897278,5.89439900053882,6.91163631274459,8.26919830277295,8.01476031224192,8.16774315338808,7.9916035891462,7.37038490222791,2.95335656760484,7.81644112393484,13.1435533104836,7.52124214098281,5.69175801235821,5.18459208367977,4.89657335827282,12.049349815079,8.1766083281025,8.22297072441194,9.5729496716055,6.81108064980962,7.32479903947995,5.71176126124077,6.80991424649088,4.9356271974686,5.10105216881754,12.2923623482676,3.42565308652202,6.91529054736484,8.07832842087152
12.1867312469286,7.34738072793124,11.9299193687609,12.7552797982926,11.958414721665,9.59009320748298,12.8166557303499,12.35764675986,9.71795588084986,11.8180145716767,12.8723794860885,12.1697255098791,1e+20,12.3061107470525,14.8515922535534,12.7117852068883,11.0104374371424,12.3485547907206,8.15896297003088,12.5524727162184,6.26094454266586,9.30677027393678,11.749178454208,10.5096727638107,11.1093588457807,4.99050502164552,11.4563831513909,9.75270871380092,9.58463468100041,11.0577546167224,10.4101605592547,11.6761436862946,11.7818764529184,10.9088476714189,12.6464111946898,8.05271300500385,6.71519552415581,12.5242308373631,10.8595525309639,10.8696825186021,12.8186203904522,12.7553251040234,9.77246925631264,13.0314876068765,7.62035747541575,12.2244358868486,11.9308772712465,11.4209706682167,12.1065827529529,9.40007190755993,12.1627302464561,12.4880117857938,12.1059130310278,8.65214461764591,11.8978696565198,11.4111933246272,8.52459529221864,12.9753625838029,11.5591492254511,10.4629477684754,12.9285868428504,11.1306098103857,14.2003658769873,10.5117934246801,9.92578238742237,4.25443289109275,9.69253719828736,9.95017051328136,11.8510663706951,12.6039290746204,11.0852482229585,11.7839763927157,12.7158938608575,9.89417388538397,10.6269855882892,9.92005076545491,12.4837195871901,10.8305881344992,13.4453498775029,11.3599972519302,9.89400355601718,6.41744141646232,12.1067064290661,10.6970040662413,12.9656431915788,11.9727678252435,8.13348520480915,11.5643691757594,10.2620817443111,9.176288849441,12.9906576274578,9.29098283711617,12.3636122276455,9.23526208780634,11.8592264970267,12.5036934808493,9.54302925970554,11.0069560552972,10.0756978695603,10.2918501507665
10.5541119493482,10.8665079035983,10.3554973649664,11.0454416748593,3.54764443638549,5.36452616396054,10.2614534444419,7.4557723831667,4.57680396080389,4.19884597947948,8.63338514892253,8.69288809025071,12.3061107470525,1e+20,13.0583337754778,3.69565187658779,2.93262445218424,2.09441496250283,8.76759284551649,10.2659304445902,10.6419019675008,5.96967248119377,5.15217074853755,9.89354685169426,3.53437740212137,10.3761392792835,4.07246900878311,12.7618130063346,7.06060261913491,3.30751085349495,4.47951273359787,2.29882835258338,3.53690959403057,4.75609000147941,4.50468648967942,9.29687178553282,9.47854425463865,2.74631314845491,10.4887552676023,4.10818533044989,8.94603656819258,11.4028471093674,4.42436141252652,11.433449852277,8.00229052636818,4.15997039013087,5.65156185399568,11.5316827029675,3.4473963727748,7.66298285433178,4.07125540563726,5.68671593911437,3.9938055303443,11.5269024976244,3.59886551692214,3.79094111023912,8.8573017750834,12.0893474184108,3.8212207267676,3.79454166318712,4.1648510842783,7.65052005935364,10.9258959660299,4.80578371461978,5.79480705954246,11.8546001611035,5.25023242265022,5.55573108668424,3.74111605585909,2.99694639306915,9.3820363187588,3.30787220001636,10.7425760197515,4.68653619254538,3.85332847326201,5.32245372356199,2.74424307338139,4.05738072336377,4.19809267370451,9.19086498722561,5.96978430603857,11.2038043913448,3.24930134818961,6.66818805774097,11.1643997676451,9.50538068958484,10.2052248476437,4.00297152751259,6.37672527795681,6.673072220965,12.3306299035195,5.82772036108067,5.68817595731765,10.9372454866222,7.26970638045967,11.1946250514017,8.6629050995223,7.30527737900758,5.31439568300481,5.66221288910044
6.62563061341363,16.0816884843057,7.20812132491056,6.54795678204011,12.3429028798728,12.8029338646235,6.44033563056907,9.34642255657339,13.6887740767898,11.94337552156,9.17921550391712,8.50623804168591,14.8515922535534,13.0583337754778,1e+20,12.2683355149879,13.2471173592404,12.6548335329812,10.8871917171088,6.38561726878006,14.2358387670203,12.2322420275505,12.5897300581455,14.8417769226842,12.6042555339432,14.706761417987,11.5957527361484,7.8362172800662,13.2710905327247,12.9311403146744,13.6432528233524,13.163949004178,12.3158956314069,12.7986112103897,12.1927386644231,15.1801720677483,14.9079685664156,11.6708739212915,8.59967305323625,12.9979760653812,7.47702784869985,6.90555532014291,12.9585842254725,4.80448285721032,14.0908470346247,12.316812566276,12.5090664312115,7.70311228933792,12.155503517015,13.0328272396864,11.3579368610205,10.2883277449708,11.8754641006056,12.088236601286,12.0954125345568,12.0984339430649,14.8795629513355,4.53847980962345,11.6542426258654,13.0570597822699,12.1003354299882,12.7588722466878,6.19044798246522,13.2373741301051,12.1845882437551,14.8094752172451,12.6441911946073,12.9576648911436,11.848719474119,11.6397645516904,8.69058006909221,12.6797366999557,7.79308744055179,12.7254835174417,13.5563147704226,13.2162319064459,12.8023399863292,13.2565001063306,11.7081967532924,8.34726606511953,12.2422764655026,15.676104369228,12.4545123125716,11.6454855981323,5.040704968413,7.6297515138509,13.9146017713805,13.0441153766771,12.2928265835898,13.025884675962,3.61957921821528,12.8858799722757,11.717070688416,11.0694221888435,10.0848162546342,6.4168416193444,15.0733189286714,10.6576417429362,12.6480748820184,13.8637512028638
9.92441290218898,11.0532138045323,9.87592164680181,10.6245566185488,4.70726082525429,6.72874771274866,9.76331235729787,7.11952240862889,6.23586578350197,2.26665987074141,8.72005010088786,8.34498234211748,12.7117852068883,3.69565187658779,12.2683355149879,1e+20,4.77505993535125,4.21057578259825,8.25184795201805,9.65555667085442,10.9291564179795,6.30765335444684,6.22000826762274,9.51821981285539,4.0588211012667,10.504812886257,3.46613481381774,12.2286003802618,7.37404129710253,5.16736537705773,5.89710998270017,4.41218608300304,2.17780433373904,5.76280000986299,5.44763723145777,9.455212046827,9.89222542075108,2.78962175818408,10.1879585525813,5.55317403370968,8.57010484229913,11.1162152197502,5.74620491864474,10.8290932238728,8.46473884142234,5.15624971474502,4.20616701573975,11.0727487543535,2.68426933504816,7.63101726286327,2.46280171497279,5.93310146318312,1.75968211183893,11.7202237212258,4.05296520081249,4.79800381210785,8.75141668444258,11.3702127204975,3.57371828730775,5.53162093694447,5.13267376471486,7.20382536448186,10.5549752559201,6.13318800159263,6.75118657137471,11.9934509117018,6.62352903826748,5.39173333123396,2.77291124128131,3.84572485667055,9.4079548929366,4.64033947476017,10.4072954370814,6.33524563968696,4.35926816300836,6.4424697542292,4.40531564342821,5.64721269767936,4.98522649934405,8.97046316743751,5.08141334731257,11.2491735850362,4.55257466059704,6.50860496460444,10.551557256462,9.04489264328427,10.2803039196748,5.22725694702034,6.34691268593933,5.92836261819836,11.4879570493173,6.59925685138965,5.90399282230059,10.8896287232637,7.36976926651015,10.7589834452317,8.79259332690353,7.32734443721402,6.68908548107103,6.87225767155856
10.0602472430666,10.0237689813747,9.91451129188007,11.0877779643104,3.29918226944321,4.05511902176358,10.0151338535343,6.91300900153477,3.05045216130214,4.54439346912788,8.36376928717503,8.12291481039439,11.0104374371424,2.93262445218424,13.2471173592404,4.77505993535125,1e+20,2.79351721765227,7.57870286077812,9.88552718152735,9.37178647430909,4.60199265894396,4.48441633857603,9.53580756402278,3.06038986514836,9.26400106349639,4.23272758326972,12.1668127125326,5.92952146003028,2.29104748434226,3.24294884188037,2.08975387085979,3.81373469608384,3.41911482714548,4.35243087142646,8.41050441834885,8.48562023983469,3.73445766955584,10.0509572404864,3.0974631570075,8.6891976122346,11.0207205454803,3.00821058980911,11.2131189551776,6.70252807734661,4.00640471475278,5.95931463682728,11.3768983423024,4.06957814758708,6.79606682743225,4.78647390131667,5.8632099658444,4.54188411374671,10.4395145805428,3.20111049116255,3.19877393683014,8.05028693730897,11.9486384833262,4.0183718328974,2.37374992029672,4.24784784470891,7.5655122272911,10.8870183762895,3.68602932289353,4.53880947289918,10.6093075432324,3.79182141259956,4.84760884479994,4.24672703780259,3.4094465256764,8.55074127680261,3.41300285215094,10.3360018476701,3.11785218412176,3.55530003567682,3.99773682744796,3.10306980670656,2.96124285246481,4.83418093733735,8.4754428048345,5.24168786387111,10.3175738088482,2.80941013390534,5.97427219348876,10.9548363091783,9.13305190602536,9.25507584637004,3.09628603110328,5.28432193474415,6.29938589975736,12.0927551959503,5.00668754166464,4.98019527627186,10.2523152531451,6.80177879093335,10.7476703739857,7.98337441676029,6.21890525403998,4.16478677651899,4.0423527328968
9.95988990189121,11.1433718073681,9.75870556033054,10.6719278117003,2.98672207738496,5.2251537620719,9.71715584063194,6.71129588963565,4.47664727562526,4.54232943793915,7.96347457789947,7.97586223679783,12.3485547907206,2.09441496250283,12.6548335329812,4.21057578259825,2.79351721765227,1e+20,8.56160005350656,9.69971047574706,10.5662092352478,5.78691983470638,4.56008205519723,10.3867830183911,3.34800118472919,10.5993654664665,4.00097077545692,12.4804346814881,6.84145056921041,2.69401676450509,4.10237328849652,2.12064014221251,3.90049289433327,4.0672346713302,3.75061157430213,9.63928300074553,9.69925921183996,2.8831717281846,10.2456652662039,3.53815366263763,8.34339922115362,10.8469874884548,4.3217293288183,10.8705608601096,8.15339532354372,3.52040485544589,6.2025841259701,11.3269019094747,3.74584297666575,7.94793235788419,4.25627183042,5.08759215850617,4.28291530469051,11.1723546634371,3.14486542916438,3.28808173890839,9.16306882925744,11.5365064835654,3.75111180281493,3.5507655910402,3.37320714291844,8.10537090448045,10.3047972367992,4.38648024583121,5.27728346622559,11.9751133743485,4.8975552280771,5.70541104122734,3.95016415585287,2.5885577409073,8.80979307168255,2.9902471006732,10.2287541058044,4.25497624069385,4.13298470180544,5.10277590219884,2.38653430949397,3.61970395827721,3.48571177260577,8.66290793327268,6.12402886199445,11.491046212225,2.77763716345297,6.32477684411502,10.5736617629099,9.08105249999317,10.3927174277855,3.53362903340367,6.15275262321376,7.06734488914666,11.8630653076546,5.84009565399843,4.97215299307787,10.6500366390369,6.89180500322936,10.5787879069961,9.13173491517516,6.7379349088611,4.89396061194647,5.19027582820396
6.96431949207512,9.45437317478107,6.91821132700925,8.27525621046457,7.66305607113129,6.35488741731409,7.74295073438095,6.33874027760907,7.1825229576447,7.17651470475825,7.69944881815559,6.41390508886453,8.15896297003088,8.76759284551649,10.8871917171088,8.25184795201805,7.57870286077812,8.56160005350656,1e+20,6.97565796007185,7.47414639932992,5.39618348869973,7.76158914512442,10.5979083288116,7.34681259245193,7.52811253438968,7.05758505076148,7.07852494623173,6.80864711194661,7.41080697000201,7.64032142283103,8.22122887022085,7.41352953190372,7.01067682171952,8.38595682438664,8.85525998333677,7.79918260144704,7.85519196550207,6.97164667844787,7.38900437518897,6.95715859339215,8.80751964167644,6.44420151685424,8.2551686621402,7.13298620792852,8.08309714000828,8.60569325464516,7.7052661081055,7.79141299822084,7.78326808437569,7.28231793700443,7.20030313973852,7.15511627749266,7.577072575493,7.39083478265014,6.92589731049155,8.50470098350876,8.77158617885707,6.87982605091307,6.92065732409122,8.64616383495482,9.02381793923238,9.74969433010154,7.31019220144647,6.21531356585021,7.52100343174607,6.18417346092075,7.53279103514816,7.25536932018553,7.67667834643904,6.03279104992428,8.28725717993031,8.70555033697181,6.52410076415907,7.68854646409658,6.91935361144546,8.655923171656,7.65597940106419,9.05614643061468,5.73928577140059,6.31989626996095,8.98591348690237,7.7838008871482,5.73312864703522,8.15929198727631,6.51425892980427,8.1449126625019,8.02714269422355,6.968414608141,6.95047843183786,8.4576745519507,6.45468642893525,7.29970648362512,7.35576814613796,6.68040895557477,8.01646290007436,9.39908898530438,5.69954918713246,6.62953841644823,7.6632437656654
2.40563482265634,14.0751481597923,3.31275893884623,4.99753263555602,9.03443048676278,9.17105726090244,3.168313532328,4.86694591648413,10.0059769374684,9.0575356166533,4.95345185777358,4.2069149542005,12.5524727162184,10.2659304445902,6.38561726878006,9.65555667085442,9.88552718152735,9.69971047574706,6.97565796007185,1e+20,11.6557098247909,8.31562398072536,8.88666433918007,13.5739572426445,9.25847139359032,12.4243976931904,8.6608852408329,6.72626101323799,9.64944368941599,9.41724070553171,10.1192627801852,10.042966555322,9.33798120540567,9.08485998141667,8.84178271388885,12.659852787632,12.5032759761297,8.64023675732291,4.89397469391239,9.41876011804114,2.91949455177694,4.64653771415265,9.29529576565093,2.75844842123079,10.7601900671643,9.15852198904903,10.5764298246425,6.57531981286626,8.97217218781934,10.5925055134562,8.51086408461853,6.49237198022427,8.91656180690475,8.61723159478465,8.78443182644383,8.34050770752496,12.2976013896492,4.32346825664938,8.33993603457727,9.40181376368599,9.07814276022525,10.9257542666988,5.24448084526543,9.6734552700984,8.19663882402523,12.4326824273662,8.73561366524486,10.1786705668775,8.66501229800897,8.30765314764171,4.19125726213238,9.89924152541446,4.97442551606369,8.98838515761161,10.284962255655,9.5621542453187,9.65902859040979,9.78915772372233,9.00126121117993,3.39571231829851,9.26953354427488,13.8071999548165,9.03095057814562,7.08773106062605,2.88201801468201,2.98463458752791,11.9196998391096,9.71541841677467,9.20581040324711,10.5516414818181,4.07906897927924,9.0788895007176,7.94475279971153,7.92449221821273,5.84820322816278,3.20187356904356,12.8965113394516,6.29897014467734,8.79397749199346,10.0100041821117
10.9510564952748,7.05758931392781,10.5745577134408,12.3358597694445,9.9692673918334,7.78017298104145,12.2521917753174,10.5693613565714,7.97371814648698,9.75725477891726,11.6582275569547,10.2618834152054,6.26094454266586,10.6419019675008,14.2358387670203,10.9291564179795,9.37178647430909,10.5662092352478,7.47414639932992,11.6557098247909,1e+20,7.39302888129636,10.2642969232934,10.4564150124404,9.15508327329907,5.85715984982923,9.19860638233617,10.5192091238807,6.71623034589385,9.30767570205138,8.63126615672134,10.0790302433502,9.89790225838349,8.94131187332766,11.0213429844535,8.80963295946551,6.2253312236464,10.7109875891134,10.2452042272449,9.099998526533,11.4465915259344,11.0802500422811,8.10850927022734,12.1135918590186,6.42858050382605,10.14964786047,10.4789929304063,11.8654888213934,10.2571268824765,8.74279897518424,10.1856082847641,10.641343059293,10.1555000300589,7.4036390477931,9.87456952532917,9.51337017418867,8.82793505139738,11.9620783267386,9.48477940621477,8.66724470048433,11.1762038543319,10.7342333138433,13.4648681501544,8.66773938268816,7.71420738958544,5.57638658448274,7.72298896482446,7.75481890488833,9.77039583744022,10.9121887413034,9.82893992422636,9.81066478414351,10.9217748265153,7.98015540977232,8.5325353902913,8.33973616261243,11.0467569673993,9.06293917471837,11.6552319061457,10.0717345092924,7.7069531334383,6.66899737471371,10.5641939809003,9.34798328268987,12.1185805109502,11.2499562855639,10.1487095552941,9.97050442977781,8.40485156729719,8.08337900450413,12.4640397575904,7.56147412915603,10.3615278082994,7.8914800638623,10.7248326473867,11.4936761102355,9.48178682288951,8.8145599393697,8.17629813790755,8.8148188945468
8.23937956956784,10.0471827392384,7.98392353322434,9.98814616881399,4.60017801365125,3.72387917175348,9.13739511787991,6.3377029889227,3.7253666971021,5.11853720497257,7.78992777121999,6.70705237823778,9.30677027393678,5.96967248119377,12.2322420275505,6.30765335444684,4.60199265894396,5.78691983470638,5.39618348869973,8.31562398072536,7.39302888129636,1e+20,5.8202996842292,10.2693142643477,3.59159898548485,8.07371302357684,4.25626785365087,10.0202375891929,4.34374700303252,4.28510933383478,4.06316372992323,5.42033907131432,5.22303376419423,4.39259852708209,6.52673229837124,8.5930293889741,8.21603799376781,5.24672122911567,7.9098710674727,4.00751844670329,7.65107445181079,9.65732795104978,2.85526578287051,9.65182821548505,5.64122773228004,5.67472193801962,7.12211477699136,10.2267404291294,4.98775757882338,6.34010444224977,5.35623098036078,6.05263461381718,5.46928100664515,7.47488210764266,4.43602097762447,3.70031308724352,8.2903793203344,10.1557864448434,3.91921485736271,3.77433096350171,6.73722598905518,8.16424602960305,10.8730353130424,4.47370356787339,3.07201448544243,8.80284093719445,3.03489612901277,4.26925475301594,4.50386354908203,5.37761713715272,6.67549665390716,4.88030140325479,8.90516298289161,3.24438051917466,4.25309034084211,3.67370847085093,6.17955509416296,4.55615692391194,7.18355834401628,6.43463969211174,3.85655870218892,9.81460018449202,5.55101241506599,5.76745200169164,9.6101662182348,7.98630111952342,9.5538430604837,5.38024049970747,5.26268591079448,6.33176116436392,10.3332031773157,3.18546504413198,6.07987708403011,7.36042250308819,6.29418539128644,9.38736134577148,8.79419511332851,4.57064687053814,3.34605673853757,5.22834903399887
9.04495385683891,11.2070880623409,8.92780057645803,10.0640089747246,3.95903185491754,5.31488212262803,9.02811102862798,5.62292829880294,4.64595815218421,6.27720198190552,6.45040375401956,7.0071534447921,11.749178454208,5.15217074853755,12.5897300581455,6.22000826762274,4.48441633857603,4.56008205519723,7.76158914512442,8.88666433918007,10.2642969232934,5.8202996842292,1e+20,11.6783021709647,4.74322586768289,10.4956210749662,5.82572293480524,11.8493916633577,6.87358507084009,3.76884307724779,4.48229488455841,4.45353807038079,5.70477622734551,3.34106400690259,3.11910997633935,9.79676451691844,9.78162995799335,5.24517170343099,9.39776710542682,3.81727454580756,7.42435213408634,10.0649600525972,5.0815732452502,10.2888351221827,8.09371254304258,3.78267981801845,8.25385545254986,10.8057136820922,5.54762754452416,8.54815019086059,5.96963044257457,4.79490080377514,6.05756191995325,9.87199474291137,4.19621197697826,3.66467930668626,9.54382184865698,11.2159139230482,5.29536583093411,4.31389390608461,3.44092303319261,9.21203632781403,9.61331526680971,3.77839867782264,4.7541226305647,11.4150554548589,4.64602115684682,6.91135024021942,5.69342934625028,3.98765131109718,7.30127117468774,5.09944948895838,9.570858233219,4.71509032171028,5.67601761141325,4.59178449576336,3.7249148171971,3.4912056787784,4.23759865175805,7.3740984712984,7.06513391879411,11.64204249416,3.36850303959853,5.48025804826547,10.0292177677616,8.24524219916301,10.1832415731938,3.54624230706838,6.4044025614887,8.39822122751288,11.4345811094024,6.08504835711195,3.60588394014557,9.93143217241014,5.18070816142994,9.62010966962225,9.50626241820789,5.38382383245412,4.20743236950479,3.65057246087009
13.6624701376918,8.55869471487423,13.9771979499233,14.7226325723944,10.7492303728304,10.2656994618479,13.0503199015098,12.6855709856854,9.99125142912438,9.14999675243806,14.0473007272348,13.2722790434716,10.5096727638107,9.89354685169426,14.8417769226842,9.51821981285539,9.53580756402278,10.3867830183911,10.5979083288116,13.5739572426445,10.4564150124404,10.2693142643477,11.6783021709647,1e+20,10.2262947912923,7.50094149182931,10.1242310037676,13.5483331324188,11.2569895912466,10.5593630408425,10.2988563748388,9.70789828795727,8.87184220079571,10.6652201156851,11.5635824495967,5.67435862523513,7.82420088805245,10.5063679033292,13.3158798478725,10.5542230890725,13.3580704051887,14.1157565318207,9.97735884536688,14.1763907961465,7.26323944559555,11.1870152077204,6.69935487150671,13.7181543768906,10.4187808222205,5.91714213201146,10.3862147494722,12.6498159610104,9.38568129410501,13.8752808332095,10.3984458454189,10.9741260284236,5.53600711049322,14.4247795003735,10.4250965260384,10.1764037518054,11.2440875385808,5.27452020106592,13.9970244430163,10.622473286942,11.0729396843626,9.16896207518955,10.6212403885765,8.70439090690653,10.4014540054793,10.8068374446173,12.9893895671711,10.4371667055289,13.2819756983584,10.3911587046122,10.0353367481616,10.3374533874945,10.5980050493385,10.2321254416826,11.6900155335233,13.0227843642671,8.86571755166098,7.85480226958341,10.4402181250534,10.8760970881208,14.0396061663444,12.6746544836936,6.43924999879832,10.2165148777975,8.70633663505875,7.4348437625948,13.910542388106,10.6981708994147,11.531833760725,13.8903830213017,12.2403973621905,13.9999351476284,4.55276999091222,11.8515629768992,11.2359644292782,10.5117810847416
9.35430009228829,10.4168997117002,9.06679816626189,10.5883699980987,2.54091058403312,4.48475879859008,9.76055817129672,6.4758565307436,3.55971812324813,3.49411779601549,8.09112999770895,7.51467398124474,11.1093588457807,3.53437740212137,12.6042555339432,4.0588211012667,3.06038986514836,3.34800118472919,7.34681259245193,9.25847139359032,9.15508327329907,3.59159898548485,4.74322586768289,10.2262947912923,1e+20,9.46156640840515,2.84893160128303,11.566711136486,5.40872807999182,2.87840041973372,2.89218122594704,3.38288965787196,3.20477429557091,3.40977295339752,4.52656320083972,9.02463070711325,8.93518773827459,2.95743158228671,9.57007564142219,2.75127018148634,8.23229173354746,10.575565115035,3.36986811136635,10.5346335064965,6.98453277687323,3.70535112372948,5.8348926599837,11.1187263769474,2.91647322334557,6.91112492489502,3.66557382772538,5.39854833113051,3.78457673647337,9.77257053250618,2.10341860181367,2.2605190909384,8.48637520041706,11.069657408206,2.33016253714533,3.33763183172493,4.55815343809645,7.83040828062986,10.7888853622669,3.63302560971157,3.8882432790425,10.7328025186428,3.9945585857455,3.70934290019774,2.72563650994207,3.29147606142505,8.19242401944835,2.5793538075363,9.85031937203634,3.71461470498859,2.71210807030947,3.78570818439757,3.6820784644848,3.10298803650029,4.78752440301934,7.98584074871221,4.27026213189933,10.638781101661,3.74217704881524,6.06161695067557,10.3564083335563,8.92311962220828,10.1370571635685,3.59173369759153,5.13944095460046,6.23480441720917,11.4076990326278,4.46374275695992,5.00408139518325,9.41500013152561,6.75276270831757,10.3248174204597,8.9284140233759,5.74804904550276,3.90787177972226,4.6550364069543
12.0512996957707,6.1705727481071,11.9071040104757,13.1076382887642,10.2061143025272,8.20794481746866,12.5573864994328,11.5399890816092,8.32880018380689,9.5029076723363,12.6090262963986,11.5766408794454,4.99050502164552,10.3761392792835,14.706761417987,10.504812886257,9.26400106349639,10.5993654664665,7.52811253438968,12.4243976931904,5.85715984982923,8.07371302357684,10.4956210749662,7.50094149182931,9.46156640840515,1e+20,9.43203181977407,10.8050435248924,8.46305506471617,9.52181543335124,8.95670013030321,9.88507835154244,9.54044109472457,9.31764834264085,11.2113241117261,5.87478716102631,5.04188792510156,10.7677431276443,11.1805296830172,9.29592614855674,12.2595810547331,12.883213217151,8.43408525714554,13.0890450159052,5.23357976210149,10.4295093256232,9.0946861129681,11.8148608803895,10.3912296495294,6.56353808214432,10.2299381442057,11.3698444201199,9.89352023975581,9.77976500136016,10.0562007605643,9.91369871640368,6.06380345977078,13.136322034812,9.82873151638231,8.95190832081542,11.1872116620786,8.24839785908074,13.8968185249335,8.93324282320319,8.80958576566472,3.86586549754046,8.44829813350313,7.6276674594542,10.08112423711,10.8991682154558,10.9361952873723,9.9220634702369,12.4940420184007,8.62600203692452,9.04626800608792,8.53520645819142,10.8550699967857,9.1984152116334,11.7397299638391,11.0291552817223,7.7162936221693,4.62176002776955,10.3766617492966,9.63636964602308,12.953612125699,11.6776264852505,6.31935021660429,9.80710478560084,7.78112941972091,6.45818690600778,12.9840994285944,8.36826856698538,10.8644156960037,10.1385352966624,11.1284321689687,12.6077445786698,6.70712423837499,9.93672844342265,8.99977948971358,9.22208478191406
8.65514194404132,10.8008923741099,8.41724947787022,9.77415914297475,3.8070112554934,5.05200542423444,9.1809908266718,6.23708310679642,4.9203061746401,2.55253265364957,8.00445998766797,7.00093833109006,11.4563831513909,4.07246900878311,11.5957527361484,3.46613481381774,4.23272758326972,4.00097077545692,7.05758505076148,8.6608852408329,9.19860638233617,4.25626785365087,5.82572293480524,10.1242310037676,2.84893160128303,9.43203181977407,1e+20,10.955597514073,5.4650055590779,4.05247933825871,4.80145697707828,4.32777613022764,2.84016082208551,4.67423023676802,5.53128097426487,9.45047741375327,9.32410599268449,3.06414371447275,9.02579135919999,4.30239246093359,7.66598882528906,10.0955256688924,4.20468013168807,9.73498100133481,7.37152465084233,4.54033816819957,4.97627865900192,10.3121150842008,2.78515024781074,7.04158221316126,2.20109808014045,5.03102184274273,2.71900231084101,9.83044311401923,3.42069954302615,3.63190476190527,8.74166640038981,10.1009943864937,2.10424073716419,4.24295053199333,5.22537151400448,7.71632703028042,10.2262986309113,4.92447000315342,4.81213760812814,10.9412107393843,4.69864798126391,3.453445980646,2.25870675823931,3.84753905164496,7.98130449841075,3.69776365482003,9.52484680113026,4.6080600982476,3.36535306185152,5.10641179080285,4.85255752460947,4.64978714690499,5.20688498036801,7.52903872752181,3.17970800164596,10.7482518308803,4.56794252174559,6.07494779739135,9.51650463556554,8.31202256844579,10.4303885101724,4.89129469241028,4.79142508566768,5.196487532336,10.4537308341942,4.92488894372328,5.66487750734548,8.94700653126974,6.81557773693893,9.74886479721682,9.20447904755125,5.8475178769642,4.96184045550321,6.32090343920144
6.78687944871382,12.597049284846,6.91316819808877,5.71226368993606,11.8475133525069,10.9164691429314,7.43749241530849,9.54422102363712,11.8303348058281,11.4035622868982,9.68239037160797,8.75037667483638,9.75270871380092,12.7618130063346,7.8362172800662,12.2286003802618,12.1668127125326,12.4804346814881,7.07852494623173,6.72626101323799,10.5192091238807,10.0202375891929,11.8493916633577,13.5483331324188,11.566711136486,10.8050435248924,10.955597514073,1e+20,11.1483616251483,11.8010419705203,12.0512847008497,12.5137789880205,11.8139119181607,11.6250413373673,12.1065598032006,12.1146218010052,11.2334493126489,11.6990668970602,6.68173500900931,11.7076142870531,8.40884870753398,8.02472317520346,11.1115952971341,6.67505255120541,11.3997570673079,12.074252514863,12.1356421209638,4.72235352444837,11.7636588840366,11.2821228120641,11.02128023799,10.3827986948128,11.4672418916938,8.99805753663497,11.6922107024583,11.2169374044176,11.9306916252105,6.43062239605929,11.0406164951631,11.6327509720739,12.3114074860178,11.9802764287596,8.86748370788959,11.8639064793754,10.5557901260504,10.1832082910206,10.7952592274111,11.4206312031639,11.3476985821747,11.5875657781162,7.97192755427684,12.1710114726879,8.97581522831456,11.114601317851,12.1867558356612,11.2865494459648,12.5461656378233,12.0153986731557,12.2965844164961,7.54885860442462,10.5920784848735,11.7141454944721,11.9394734821531,10.0144998790454,6.70500506995655,7.18053017339899,10.9735298729886,12.2372306230292,10.6726974750995,10.7663954218075,5.80720673705744,10.6799779967531,11.6100941931133,8.28674232876904,10.0119911763292,6.95467030031014,13.2268913757473,9.97129367821941,10.8952203126508,12.3582262815377
9.12434069511242,9.80152134766276,8.63768764259399,10.9282279971301,6.18802212668508,5.00844637241088,10.5558228993858,7.08353446552347,5.06818106259263,6.30566285222455,8.56395252359923,7.27750184341859,9.58463468100041,7.06060261913491,13.2710905327247,7.37404129710253,5.92952146003028,6.84145056921041,6.80864711194661,9.64944368941599,6.71623034589385,4.34374700303252,6.87358507084009,11.2569895912466,5.40872807999182,8.46305506471617,5.4650055590779,11.1483616251483,1e+20,5.60711260618396,5.5961381891568,6.62707063817318,6.53481643488154,5.71752669406807,7.53294227787458,9.71479904592742,8.76373487674598,6.69738261930923,9.08011887796225,5.61441282419537,8.75260081893977,10.3008580928976,4.9361374017836,10.7035195503509,6.90321386453531,6.60258815599269,8.38955969444855,11.3291527244842,6.12077592602702,8.59110543388504,6.338165695938,6.90944000815985,6.58811044823726,7.26567310271674,6.15137005783275,5.51898595549724,9.27110297012208,10.9925742951913,5.71018188895327,5.27747017776467,7.80396865282243,10.1846210578402,11.7222764949252,5.72464084249563,4.76611694651792,9.31715797914589,4.73657685163857,5.46374677790193,5.85245026347628,6.90430913240834,7.97298072681772,6.28513796906607,9.84206582622761,4.78489233101615,4.91663889112483,5.67209731549785,7.34430480460964,5.98188047828441,8.10482447145926,7.78219557681537,5.16367906520874,10.0510581785395,6.90042369550635,6.58628296139152,10.5479464115931,9.32837417406949,11.0499720588913,6.766173494127,6.21456936824961,6.96462281943761,11.5566515397948,4.94110557065673,6.90097524635274,7.17299809658774,7.96164179872396,10.1576010104384,9.98816257387824,5.69836662073612,5.1551226495494,6.25184423446975
9.53123276370452,10.432160503395,9.20988196059267,10.4692218723222,2.45971785210413,3.62838962524894,9.72796595798395,6.34011883571398,2.84303075377051,4.83588254384025,7.60302332481393,7.4144698083766,11.0577546167224,3.30751085349495,12.9311403146744,5.16736537705773,2.29104748434226,2.69401676450509,7.41080697000201,9.41724070553171,9.30767570205138,4.28510933383478,3.76884307724779,10.5593630408425,2.87840041973372,9.52181543335124,4.05247933825871,11.8010419705203,5.60711260618396,1e+20,2.60345466452912,2.41268501266559,4.36849386283073,2.56875417596672,3.81579237823749,8.98496536274466,8.8379596886469,3.75840768561779,9.56126500741381,2.10403904353701,8.11744215293482,10.6516941632524,2.99652074374687,10.7514012121375,7.12197273741523,3.15777137627782,6.87532183655481,11.0270474715667,4.21516651519671,7.51604595590983,4.70539776886192,4.87611764497472,4.84323195326188,9.70968261449998,2.87556790648535,2.30351209880838,8.69182500029489,11.4497214967673,3.66383627576312,2.24597557470419,3.67401392781703,8.34577177694041,10.6246363846731,2.8409926497988,3.57622040772873,10.6727709783699,2.95892184673026,5.17474255079666,4.15965699361135,3.11910084753507,7.91615007057189,2.95677523322407,10.095477671541,2.5424565636363,3.67103563425637,3.44917420135241,3.05772159620159,2.40507324691558,4.24472326545611,7.88281139216233,5.4693100270053,10.6451478601476,2.69745301419837,5.64769333598539,10.4830494869753,8.81671017152846,9.82451130331982,2.93973522535453,5.44494072837415,6.80626080660618,11.7517314847869,4.53312221148884,4.42501199270503,9.53653653904423,6.36700291082959,10.3355268335629,8.85515533744454,5.57391385043646,2.93571593300115,3.91052343173368
10.1758952316597,9.91724266966871,9.85703402204036,11.3767994694966,3.16231904424602,4.08521321035882,10.5782774356591,7.32674963870689,2.84981115599257,5.39003797947833,8.55887813396494,8.22945315664702,10.4101605592547,4.47951273359787,13.6432528233524,5.89710998270017,3.24294884188037,4.10237328849652,7.64032142283103,10.1192627801852,8.63126615672134,4.06316372992323,4.48229488455841,10.2988563748388,2.89218122594704,8.95670013030321,4.80145697707828,12.0512847008497,5.5961381891568,2.60345466452912,1e+20,3.5469850302509,4.96568603733836,2.99077427563806,4.8121164985675,8.52676920268659,8.3279026520902,4.78026332801732,10.0667120403353,2.159779296063,9.03258188192679,11.2021509209725,3.34681077481298,11.4515865919372,6.46699126022117,4.03767931687552,7.15101158896923,11.7476076409568,4.8273670259205,7.09800639090387,5.65673861300071,6.26395536355109,5.67247807260377,9.46819435656675,3.42899546460608,2.95142187858003,8.24832800557737,12.0765933348054,4.23923044901654,3.13941650511275,4.88702487295264,8.33963496515032,11.6364070835654,2.96017430836254,3.56114646201622,9.9836547970152,3.43569931215827,4.74160238654524,4.83349206957926,4.44585072876272,8.52465139206403,3.36241654607264,10.4920881251928,3.17299030079248,3.79011962069812,3.16235159584327,4.15074594151512,2.54709197716084,5.43615666642694,8.50316911374241,5.50167426372061,10.0478247924476,4.08195526753887,6.43210190817485,11.297634619628,9.64861206873563,9.73274475085101,3.5988940470563,5.57183455852922,6.96303161348714,12.3626368244718,4.37183057715906,5.41826258047969,9.57897936422847,7.15870806439582,11.0071946947203,8.55467899898326,6.11676489471755,3.28054795695992,3.72959231739383
10.247446324529,10.4862514712802,10.1249391069221,11.0273337565718,3.37277787592344,4.60753826344256,9.99436066649539,7.05288108156384,3.70696418418954,4.51235275034902,8.4101696632679,8.3635053990485,11.6761436862946,2.29882835258338,13.163949004178,4.41218608300304,2.08975387085979,2.12064014221251,8.22122887022085,10.042966555322,10.0790302433502,5.42033907131432,4.45353807038079,9.70789828795727,3.38288965787196,9.88507835154244,4.32777613022764,12.5137789880205,6.62707063817318,2.41268501266559,3.5469850302509,1e+20,3.74713204558111,3.85481963116006,4.19050026035775,8.7198851045739,8.93633939269052,3.32700637314635,10.1895524467516,3.36282985942954,8.78030592733477,11.1144465616541,3.71136991955927,11.2911660558837,7.34206736101176,3.92171900961803,5.94437502412942,11.4388145121015,3.87632887482904,7.28043790333463,4.56785315123114,5.60966162953745,4.42759857929531,10.991107859005,3.35139661378602,3.44712314576691,8.38910417265686,12.0167674638606,4.04272160769434,2.90399594711951,3.89998562449898,7.60721319486865,10.7899481144026,4.06140907889379,5.07249116913757,11.3047132535996,4.36792698940458,5.42354104954613,4.23837351914485,3.02264902550594,8.93204914388,3.44215876767927,10.4462080117724,3.70522547727502,3.73591165031712,4.6082236155585,2.51763063881852,3.319142841445,4.31926376923507,8.81585812809583,5.78230112009934,10.8441637007796,2.544539950163,6.10333130514386,10.9933213465842,9.20903705318413,9.59843003817896,3.22199502744641,5.83401338000514,6.59614075597714,12.2184841158732,5.42126676578209,5.15588982242973,10.6325241898953,6.87113074285379,10.8855075111279,8.21931516846071,6.74625551489248,4.56712023259624,4.5909572310512
9.54117502690753,10.364087550328,9.51873734364422,10.7397402087532,4.06275046559212,5.59401413958362,9.5372190280035,6.6878354292955,5.11519291714448,1.66402141197844,8.58094674415475,7.89952875671786,11.7818764529184,3.53690959403057,12.3158956314069,2.17780433373904,3.81373469608384,3.90049289433327,7.41352953190372,9.33798120540567,9.89790225838349,5.22303376419423,5.70477622734551,8.87184220079571,3.20477429557091,9.54044109472457,2.84016082208551,11.8139119181607,6.53481643488154,4.36849386283073,4.96568603733836,3.74713204558111,1e+20,4.69315404542782,5.17310011179997,8.70591423571522,9.04619681590775,2.88775335544559,9.92554595943853,4.64174223120123,8.297416876336,10.793539246662,4.72270242169718,10.5567796561438,7.25387732306161,4.64423632919858,3.6601944651632,11.0854948712964,2.5125653866013,6.54326855237919,2.58590595312698,5.85161970000555,1.82971456664231,11.0472658414783,3.33043896329149,4.12104619441941,7.98697345584606,11.1573328045097,2.79355948636024,4.51476055299604,4.81973402195188,6.65540255637461,10.4968729079207,5.09362196866274,5.64627186886678,11.0846202251797,5.47926241018018,4.189645735624,2.51910181944625,3.62098836595598,8.74639219832436,4.2807395528274,10.0031970875375,5.21120343633208,3.53345309057033,5.40560589419074,4.16838716142459,4.57773166034224,5.04672115734065,8.40057295865333,3.85133198450144,10.5464511216836,3.98657072086904,6.10986836481317,10.3422906054031,8.7793933078266,9.57832088604327,4.38397992935262,5.2039726300067,5.06008052971545,11.2463392202949,5.82541759542697,5.30874681086743,10.3888082114529,6.91193919479569,10.4815669617386,8.15128210400663,6.47569570197343,5.7592897199517,5.86944023674573
9.1899225047216,10.3547388856494,9.02500964057501,10.6100410787163,2.81292143654715,3.99023135289945,9.54223166810137,5.95232252298728,3.18840965798899,5.15888672506151,7.47487361706461,7.08945493400145,10.9088476714189,4.75609000147941,12.7986112103897,5.76280000986299,3.41911482714548,4.0672346713302,7.01067682171952,9.08485998141667,8.94131187332766,4.39259852708209,3.34106400690259,10.6652201156851,3.40977295339752,9.31764834264085,4.67423023676802,11.6250413373673,5.71752669406807,2.56875417596672,2.99077427563806,3.85481963116006,4.69315404542782,1e+20,3.45341102896249,8.97921269315292,8.74568307334728,4.80029372161065,9.52683962474048,2.24999339735563,7.88928201814966,10.3500288724543,3.87522151350817,10.5354693427047,6.96999395702672,2.82474608718303,7.16373963468828,11.0846552691596,4.99965708834991,7.44016712805877,5.30247642109258,5.12777475387311,5.28937307829934,9.41908343828094,2.90115057560347,2.72065771931118,8.63976092230464,11.2957206699453,4.20912608986509,3.03553013764809,3.37285446623371,8.51145623181475,10.4258565378946,2.06888181105622,3.28619295037697,10.2763014490183,3.13189720959142,5.27436558526173,4.80292411691427,3.83979206443215,7.48044828805036,3.80919902961678,9.73413059711215,3.2792130397202,4.53575483043392,2.98405279705978,3.83588799913322,2.01548481486175,4.29493039008023,7.49477629460628,5.47301511427042,10.5055814709046,3.2580682260971,5.69030871896577,10.334611164821,8.71215288699903,9.62739555261002,2.51531405280453,5.05171774483688,7.14475431143181,11.4586210142108,5.14796448050844,3.58277961436225,9.5596028676393,5.94154898702534,10.0562987480041,8.85523215787035,4.93594541130433,2.98662418103992,3.21243266929461
9.17388975671575,11.5426586023435,9.06439787504984,10.0543555817366,3.57507149009176,5.90352159314428,8.94716019577615,5.63526499568384,5.31427768622307,5.72926968767422,6.63212272503015,7.13335635185249,12.6464111946898,4.50468648967942,12.1927386644231,5.44763723145777,4.35243087142646,3.75061157430213,8.38595682438664,8.84178271388885,11.0213429844535,6.52673229837124,3.11910997633935,11.5635824495967,4.52656320083972,11.2113241117261,5.53128097426487,12.1065598032006,7.53294227787458,3.81579237823749,4.8121164985675,4.19050026035775,5.17310011179997,3.45341102896249,1e+20,10.2640486470009,10.1320218616651,4.45001216266087,9.89687037268998,4.01410402833445,7.40261498428069,10.1302241065141,5.72944268775129,10.2361070530624,8.82568543665088,2.90404486403527,7.61136330116437,10.9006447824433,5.15734448309452,8.74348024800057,5.49733938568883,4.62463262465075,5.54935498873513,10.8590972425806,3.53044635747662,3.64057486663679,9.84550472856683,11.157442625561,5.01112709005,4.83171374923221,2.06768703841485,8.95268265640891,9.19486395228581,4.11813804270714,5.31405301962253,12.2402248978612,5.44420886852676,6.93308204368836,5.24602506040921,3.1679859122738,7.90348950704793,4.46640935387495,9.64690854680949,5.2787166640024,5.82255987433213,5.30597023897665,2.96199832654872,3.75803350221341,2.428242122446,7.90946602366464,7.2924294965971,11.9917908076424,2.89214828641649,5.82998760736478,9.92363757540171,8.42931315644287,10.487332962034,3.51425825309379,6.44576452293758,8.35544423087243,11.3846347077974,6.91110859365992,3.10651908065947,10.7654298355353,5.75846633853335,9.71627143085447,9.90594953337976,5.9299376266232,5.09384123187189,4.50978750533924
12.6828311723518,7.32893670391371,12.8244805752991,13.3552504944741,9.52529949055238,8.52978979262409,12.0971251025951,11.6041369698354,7.91136747254127,9.03880954695929,12.6922440829923,12.2968834873596,8.05271300500385,9.29687178553282,15.1801720677483,9.455212046827,8.41050441834885,9.63928300074553,8.85525998333677,12.659852787632,8.80963295946551,8.5930293889741,9.79676451691844,5.67435862523513,9.02463070711325,5.87478716102631,9.45047741375327,12.1146218010052,9.71479904592742,8.98496536274466,8.52676920268659,8.7198851045739,8.70591423571522,8.97921269315292,10.2640486470009,1e+20,6.10066619868898,10.096519041825,11.7146418060982,8.74964221638494,12.5364069733396,13.3462559034182,8.34704898319112,13.5926935952097,5.17509016632016,10.1051560848076,8.15151356008756,12.2137606721145,9.9200416860301,5.66306180155288,9.7899660622695,11.3749276263186,9.10910741726019,11.6819129473571,9.48924498157023,9.55328149446003,2.21071788435179,13.9643755767447,9.69662104590838,8.67093934981736,10.2385401457298,6.1325040360655,13.319495179925,8.76370890008742,9.26428659616109,7.25941489941004,8.70298023049125,8.06491796622533,9.85923427638456,9.85524629919352,11.4904208752566,9.55740486680054,12.8092732684595,8.76474166652299,8.95721788856275,8.21306880245937,9.57996321920042,8.53137451029023,10.8766615815589,11.7164140272844,8.17964898087617,6.60488397403416,9.29010055575453,8.68540070155958,13.2950608364168,11.350854320625,5.10613723985144,8.80814543393828,7.49713316985223,7.43685852429167,13.6758028531007,8.72034976867191,10.380990752711,11.9998894337502,10.8688177144677,12.9715998155168,3.47120078263543,10.591013747213,9.10513857514654,8.36739903172085
12.4037602342734,4.59695439002358,12.3842201753856,12.7508592866179,9.59806165619607,8.17008128055769,12.4132991290866,11.272147311015,7.92120756720829,9.23963121540553,12.4907026315014,11.8043683770777,6.71519552415581,9.47854425463865,14.9079685664156,9.89222542075108,8.48562023983469,9.69925921183996,7.79918260144704,12.5032759761297,6.2253312236464,8.21603799376781,9.78162995799335,7.82420088805245,8.93518773827459,5.04188792510156,9.32410599268449,11.2334493126489,8.76373487674598,8.8379596886469,8.3279026520902,8.93633939269052,9.04619681590775,8.74568307334728,10.1320218616651,6.10066619868898,1e+20,10.121047558069,11.4090153459042,8.71654048927016,12.2785751520984,12.579475800399,8.25083782031428,13.3910683955862,6.24300257752288,9.84429399630418,8.85975113509681,11.6810140173798,10.0465038486938,6.92052862965976,9.94943593182228,11.1109412846959,9.50848814685932,10.8986445417314,9.40638727121827,9.38910200730766,6.15680259809787,13.5915077301649,9.61611983007288,8.42387839204522,10.2529892365355,8.11529360507452,13.4126815764797,8.56145970056691,8.87283327141451,5.90400816982495,8.40214635121278,7.89657604904011,9.80622721448227,10.015087146622,11.2477789704912,9.35400926614483,12.2005163920882,8.37475239758416,8.74551008884375,8.08705240279181,9.74201729219603,8.44646319989361,10.8322677341663,11.4147307795883,8.27217565926754,4.17940951673162,9.41753344947267,9.29014600705342,13.1708336776813,11.611932100316,6.42573570722319,8.95983817723886,7.65375880164906,6.71915908687786,13.4263423873745,8.65891437856063,10.138941224829,11.2956840472945,10.7754426761009,12.5512661280717,6.66340072490584,10.087171791406,8.68643988202932,8.45273319479478
8.99368951063018,11.5183094656038,8.80025683366367,9.79834126318224,3.37679698919125,5.54187950478364,8.91404860620692,5.97864268012064,5.25264713901813,3.09550387477532,7.39698932567376,7.11391919440721,12.5242308373631,2.74631314845491,11.6708739212915,2.78962175818408,3.73445766955584,2.8831717281846,7.85519196550207,8.64023675732291,10.7109875891134,5.24672122911567,5.24517170343099,10.5063679033292,2.95743158228671,10.7677431276443,3.06414371447275,11.6990668970602,6.69738261930923,3.75840768561779,4.78026332801732,3.32700637314635,2.88775335544559,4.80029372161065,4.45001216266087,10.096519041825,10.121047558069,1e+20,9.24936898701736,4.34378872604814,7.40610080608135,10.1074143225758,4.49642452932009,9.88897956083073,8.3288264939553,4.0523898618509,5.46852409872195,10.5780057574649,1.9229018639585,7.7921595507521,2.69303124337495,4.50385532707947,3.0008948759806,10.7722138865882,2.85884783870533,3.16075195641029,9.56004557802115,10.5842338335411,2.42223860868925,4.24153623033147,4.27315026209833,7.80212127393254,9.84526301388248,5.25416239968775,5.33710385015531,12.0478808433004,5.2907557278657,5.4072553600978,2.09242564604501,2.31259640160199,8.20746063909835,3.36292114352265,9.39744369414065,4.78949744462233,3.86628612904079,5.61180041879682,3.33561778285159,4.71814795539435,4.06405569103042,7.76410826525493,5.41579304509211,11.7811137748044,3.42823889014806,5.97769135560714,9.687296457192,8.17207718373136,10.6795615268766,4.52424081154083,6.31173576477657,6.64888695765557,10.8231590885735,5.53672739528921,5.03648201352269,9.98101095549632,6.27570125090511,9.79315857006194,9.64287760920721,6.15949476891776,5.28333795203226,6.11055035519056
5.15287238142357,13.2492518439567,5.45296237542879,5.38238007982654,9.85801037537446,8.53138640099823,5.19032728761066,7.10199587215102,9.45652859914951,9.56369723054704,6.67324689146514,6.37368147473179,10.8595525309639,10.4887552676023,8.59967305323625,10.1879585525813,10.0509572404864,10.2456652662039,6.97164667844787,4.89397469391239,10.2452042272449,7.9098710674727,9.39776710542682,13.3158798478725,9.57007564142219,11.1805296830172,9.02579135919999,6.68173500900931,9.08011887796225,9.56126500741381,10.0667120403353,10.1895524467516,9.92554595943853,9.52683962474048,9.89687037268998,11.7146418060982,11.4090153459042,9.24936898701736,1e+20,9.57642950833799,5.81988892873672,5.1746198094248,8.77283073601408,5.69775133401669,9.67604905570533,10.0449324283749,11.0568138877758,6.15898396471517,9.35343675746419,10.2820261333024,8.96085519269953,7.37171123466809,9.57589779799931,7.18899981566465,9.70520408012442,8.83251850294521,11.805992422502,6.36956867900349,8.87622149656345,9.16928922426571,10.1742115765296,10.8989585004436,7.82958084567946,9.80870445758314,8.1115715677162,10.9718141651064,8.29443007651794,10.1038964467967,8.98689557559506,9.29672944228279,5.18181924734348,10.2069965132794,5.20547865765479,8.6230733525795,10.0406325454323,9.23954309523831,10.2948673509042,10.0341415783251,10.278945586181,4.56842213557523,9.10011351124085,12.7027532400962,9.63287217735291,7.21686650939536,5.56324356362606,4.3104809682256,11.616802950454,10.1352929677393,9.57976195075911,10.1950449562877,6.352269476798,7.81357080626486,9.47914242851368,6.19978809282744,6.23929184365038,4.82134458111533,12.1132620998427,7.213659840005,8.22714965396396,9.98338609550591
9.57556096060698,10.333457950468,9.31771921370751,10.7253380979462,2.37581273235185,3.93711290154966,9.81886716658741,6.5917691725013,2.82646787753094,5.05475068711768,7.85448338579572,7.60554346323976,10.8696825186021,4.10818533044989,12.9979760653812,5.55317403370968,3.0974631570075,3.53815366263763,7.38900437518897,9.41876011804114,9.099998526533,4.00751844670329,3.81727454580756,10.5542230890725,2.75127018148634,9.29592614855674,4.30239246093359,11.7076142870531,5.61441282419537,2.10403904353701,2.159779296063,3.36282985942954,4.64174223120123,2.24999339735563,4.01410402833445,8.74964221638494,8.71654048927016,4.34378872604814,9.57642950833799,1e+20,8.28746696728668,10.70862441483,3.26579106929409,10.8269865577486,6.79373563047817,3.32984647797272,7.011697004319,11.1707009171408,4.58636229481026,7.14623361049221,5.12049754364555,5.43030947261785,5.18918121156055,9.51530282201465,2.88908718135477,2.24367790930383,8.45141359880275,11.5014760311573,3.86277656698744,2.88555286721682,4.06498295799744,8.23151624510663,10.839732325125,2.47211114034762,3.40589224683346,10.4072414722688,3.08258152364317,4.87804532048866,4.50555209004439,3.6031342433049,7.94245856225555,3.18443801370536,10.0020330808091,3.12736264284738,4.00047590742549,2.89778400224275,3.57119081694244,1.98154268552427,4.67489771312802,7.8460404578055,5.34029193533209,10.47746422866,3.40667011181861,6.02123286088463,10.625041361118,8.96392734200838,9.76093400957127,2.80378484378272,5.12195034297858,6.98086876323565,11.7259806777233,4.51373001931854,4.81434613496307,9.52678597100386,6.42322572499887,10.4275188160952,8.6929835944584,5.59199061347036,2.79184442239805,3.64527003423801
3.32147722296605,13.8554711703612,3.54041158546497,6.10236251454924,7.70777459789098,8.17088489080438,4.06220360487483,3.32739701573367,8.93976969080568,8.09166859623731,3.00118258011648,2.64376044245484,12.8186203904522,8.94603656819258,7.47702784869985,8.57010484229913,8.6891976122346,8.34339922115362,6.95715859339215,2.91949455177694,11.4465915259344,7.65107445181079,7.42435213408634,13.3580704051887,8.23229173354746,12.2595810547331,7.66598882528906,8.40884870753398,8.75260081893977,8.11744215293482,9.03258188192679,8.78030592733477,8.297416876336,7.88928201814966,7.40261498428069,12.5364069733396,12.2785751520984,7.40610080608135,5.81988892873672,8.28746696728668,1e+20,5.17649184229086,8.31957792390139,4.21533836645226,10.279362146597,7.7204458248938,10.0400030661213,7.84293271089602,7.81783668646661,10.4113862487471,7.5565739949034,4.93009084281232,7.89686930410865,8.52478736973888,7.55368570000117,7.07799939249858,12.1630349504801,5.60287985873257,7.19625515068499,8.1977732409733,7.66387063240658,10.6976278275579,5.55115843160343,8.47275467441916,7.06564358343483,12.4484866703626,7.69072247552238,9.51103323412668,7.55817235359894,7.00324137282833,3.4913871156103,8.66356334875695,5.26787673652409,7.78640348400644,9.18751508641183,8.72072165781906,8.37417018016204,8.64621701671774,7.564705562743,2.80790496557902,8.65150914585201,13.755864472393,7.78831486728084,6.0858641881617,4.19541470704858,3.49913188340796,11.9324081576125,8.59573838189493,8.74699723085315,10.0573799565794,5.83586871449362,8.22677161834024,6.3603322510318,7.84254265093874,4.49482286027393,4.15484616271103,12.4304883480639,4.74442746975703,7.78423130156792,8.82367248341044
4.25035207337122,14.1002725761929,4.78755158657663,6.34456197880424,10.571033637602,10.0140613135344,4.57153528712647,6.72486566228785,10.8714296275286,10.5746007735802,6.31372705558492,5.83149665738141,12.7553251040234,11.4028471093674,6.90555532014291,11.1162152197502,11.0207205454803,10.8469874884548,8.80751964167644,4.64653771415265,11.0802500422811,9.65732795104978,10.0649600525972,14.1157565318207,10.575565115035,12.883213217151,10.0955256688924,8.02472317520346,10.3008580928976,10.6516941632524,11.2021509209725,11.1144465616541,10.793539246662,10.3500288724543,10.1302241065141,13.3462559034182,12.579475800399,10.1074143225758,5.1746198094248,10.70862441483,5.17649184229086,1e+20,10.4368283167144,4.15761253443332,11.172068470212,10.3777174649326,12.0114704194123,8.07622491611848,10.4155962898555,11.5926547103947,10.1154807920431,7.85642279340931,10.5875362250123,8.57962077715395,10.289478785875,9.86202703790394,13.2589078788216,4.93075125026109,9.91043160515687,10.5693821676803,10.3563998374999,11.9752613295501,5.60226417688385,10.7632117072843,9.10742484367604,12.7544270853427,9.76659286836188,11.2361937283975,10.1173029657008,9.98021071894166,5.27641634048367,11.0644676486383,2.62611651383314,9.85435998816033,11.2585316616375,10.8245745055624,10.9376169170372,10.9297033235083,10.3266872979325,5.35403898179195,10.5558053222164,14.0913884829187,10.4594068326736,8.21900533731322,4.17308366094164,4.93368339827963,13.0440121059409,10.9493712330202,10.5451522856786,11.7076254122941,5.63950871894586,9.89255525050498,9.35196230355074,7.91418441450232,7.05737036737092,2.70252567279081,13.3632792622682,7.47624023601454,9.79790649004589,10.7314459636824
9.33029731430541,9.93322171044082,9.04989317392893,10.4864947973578,4.04338788922705,2.97672345796775,9.7151587219,6.81801814719913,2.70529056665353,4.945333414827,8.1036222521436,7.53364062064838,9.77246925631264,4.42436141252652,12.9585842254725,5.74620491864474,3.00821058980911,4.3217293288183,6.44420151685424,9.29529576565093,8.10850927022734,2.85526578287051,5.0815732452502,9.97735884536688,3.36986811136635,8.43408525714554,4.20468013168807,11.1115952971341,4.9361374017836,2.99652074374687,3.34681077481298,3.71136991955927,4.72270242169718,3.87522151350817,5.72944268775129,8.34704898319112,8.25083782031428,4.49642452932009,8.77283073601408,3.26579106929409,8.31957792390139,10.4368283167144,1e+20,10.6015456955469,5.90998873564951,4.82995244411083,6.76256226319109,10.7078467005465,4.46543305109165,6.69427322780704,5.09410652154958,5.78867981736117,5.1422432181475,8.680406208679,4.06526003218515,3.35753780036607,8.11713026424328,11.1884465276589,3.90264863327479,2.14903672355591,5.75281697656575,8.08841210757999,11.1574647634024,3.72674647920877,3.41657764347544,9.46159652559014,2.47306174176733,4.55203375585144,4.30261416117731,4.59807331592536,7.65273672577482,4.09498140147257,9.74493612465394,2.08302474404285,3.34246292000581,3.3746484664858,4.86929933948643,3.68252292316315,6.23699921538299,7.47507546588061,4.48427302866283,9.89272660625549,4.31873916268264,5.70217467276068,10.4425661938248,8.57160550368739,9.43626719065509,4.41780527262869,5.48917019148353,6.22996609991999,11.4287952981151,3.23186422731225,5.85528656084617,8.4081145227041,6.42842318437541,10.2034180955779,8.30908968854976,5.52530446254617,3.0297986816728,4.43614107490491
2.65558636769776,14.8121764278313,3.40682971275485,5.27034455411829,10.3649454614819,10.3347132698982,3.62924062735019,6.3325781239887,11.2636222251729,10.2399609540021,6.0673838663066,5.24925069149357,13.0314876068765,11.433449852277,4.80448285721032,10.8290932238728,11.2131189551776,10.8705608601096,8.2551686621402,2.75844842123079,12.1135918590186,9.65182821548505,10.2888351221827,14.1763907961465,10.5346335064965,13.0890450159052,9.73498100133481,6.67505255120541,10.7035195503509,10.7514012121375,11.4515865919372,11.2911660558837,10.5567796561438,10.5354693427047,10.2361070530624,13.5926935952097,13.3910683955862,9.88897956083073,5.69775133401669,10.8269865577486,4.21533836645226,4.15761253443332,10.6015456955469,1e+20,11.7163630902339,10.4834711713998,11.5739147621566,6.9636371245209,10.1791747922989,11.5484267664161,9.6280956963002,7.72605502844104,10.1196198151518,9.00035883075743,10.146694694284,9.79997178897248,13.3085243365282,2.37776078487465,9.52852084911603,10.755742628089,10.4037630056844,11.7946243109327,5.05415073756767,10.9963332050134,9.40115320714828,13.0658130809548,10.0170974276801,11.1877980816086,9.85474458214915,9.74939538461752,5.13525181915612,11.0502579427854,5.13982773112414,10.2137121262869,11.3945016862391,11.0143768336839,11.0467030307381,11.1237187358676,10.246936870039,4.82085537427808,10.2605310210012,14.5085611821051,10.5223688200442,8.48431835086221,1.65051422517951,4.30607697048863,12.8636541883637,11.1488365083161,10.4730605615677,11.5346989805955,2.83185766484106,10.1863938412509,9.37389298442654,8.04642897830803,7.27762480357824,3.14183495130053,13.7741586145048,7.62864435909149,10.1150422256701,11.3245805490094
10.5377040392742,8.00833016332936,10.5292259479286,12.2964396500176,7.71997961097784,5.91629228025749,10.6795596133591,9.37288324005056,5.59777640837998,7.49796840166356,10.4157226442081,9.64001138559328,7.62035747541575,8.00229052636818,14.0908470346247,8.46473884142234,6.70252807734661,8.15339532354372,7.13298620792852,10.7601900671643,6.42858050382605,5.64122773228004,8.09371254304258,7.26323944559555,6.98453277687323,5.23357976210149,7.37152465084233,11.3997570673079,6.90321386453531,7.12197273741523,6.46699126022117,7.34206736101176,7.25387732306161,6.96999395702672,8.82568543665088,5.17509016632016,6.24300257752288,8.3288264939553,9.67604905570533,6.79373563047817,10.279362146597,11.172068470212,5.90998873564951,11.7163630902339,1e+20,8.33368685006451,7.5446880935068,11.7433783774925,7.98047244573303,4.38552415480092,8.26503238957369,9.17023600927361,7.86289208769056,8.84551924835633,7.62539357694409,7.36163827694111,5.39152763188652,12.1816889079732,7.44406864518969,6.42958579910854,8.93230015376433,6.3734715298301,12.3498155203951,6.67551137840244,6.26040866739008,6.60660804033946,5.91970057158833,5.70024248511774,7.77886249998115,8.38348176208638,8.85946158120195,7.79389499033417,10.3495337587969,6.02445681726846,6.80998251684436,6.20213662154402,8.40973621923923,6.68801233189809,9.63003708544749,9.04849471597326,5.90431166982391,7.42169100611492,7.91274213779263,7.08994919224317,11.6162906370519,9.68251624620013,7.25207843593984,7.40469845006445,5.94616340848849,6.40735348017746,12.2107472311016,5.7448485888677,8.57452699655304,9.17634835143364,8.43442708310301,11.1094170290522,5.42487545149982,7.54184682292321,6.50449472969111,6.36418304083139
9.26828054010116,11.044843849228,8.958814165709,10.4578775095338,2.67635491322036,5.09410181952167,9.67403508080981,6.01278915627114,4.73894719213877,4.87978800871923,7.25114832984238,7.01016066399857,12.2244358868486,4.15997039013087,12.316812566276,5.15624971474502,4.00640471475278,3.52040485544589,8.08309714000828,9.15852198904903,10.14964786047,5.67472193801962,3.78267981801845,11.1870152077204,3.70535112372948,10.4295093256232,4.54033816819957,12.074252514863,6.60258815599269,3.15777137627782,4.03767931687552,3.92171900961803,4.64423632919858,2.82474608718303,2.90404486403527,10.1051560848076,9.84429399630418,4.0523898618509,10.0449324283749,3.32984647797272,7.7204458248938,10.3777174649326,4.82995244411083,10.4834711713998,8.33368685006451,1e+20,7.08977868094009,11.259821003542,4.58699242536298,8.4593192055455,4.92206981109987,4.52863170708753,5.02029764425526,10.2661156812759,2.60599889806438,3.02677317997213,9.62946594141447,11.1543022990944,4.12501817045048,4.11851421502894,2.45980762248239,8.98574052543713,10.0803196800799,3.16235465597287,4.29560242916548,11.5344175891731,4.60705676016912,5.79759330047623,4.4598654304541,3.35417070544666,8.068219726379,3.38612132415085,9.82743753349424,4.40977619745294,4.87723780254597,4.47092776740692,3.38736024990238,3.27384474298241,2.66450662649904,7.97817662567085,6.23711834481726,11.3609039145098,3.26828516312296,6.12095425739107,10.1919087285492,8.97771074887571,10.6527558821664,3.23451677893244,5.88408353432956,7.51454599572765,11.5058688853712,6.18114119579997,3.43575877412898,10.1582101511241,6.47395266632784,10.0881331471608,9.77937187475686,5.57785301740319,4.41081514593776,4.81614750652044
10.873868819917,10.1438784276318,11.0744096988917,11.7578527409003,6.64546348286577,7.55683443652903,10.6248868600156,8.9647628636278,7.29514554088314,3.86758620157444,10.8480161103042,9.91497167281316,11.9308772712465,5.65156185399568,12.5090664312115,4.20616701573975,5.95931463682728,6.2025841259701,8.60569325464516,10.5764298246425,10.4789929304063,7.12211477699136,8.25385545254986,6.69935487150671,5.8348926599837,9.0946861129681,4.97627865900192,12.1356421209638,8.38955969444855,6.87532183655481,7.15101158896923,5.94437502412942,3.6601944651632,7.16373963468828,7.61136330116437,8.15151356008756,8.85975113509681,5.46852409872195,11.0568138877758,7.011697004319,10.0400030661213,12.0114704194123,6.76256226319109,11.5739147621566,7.5446880935068,7.08977868094009,1e+20,11.5275965171487,5.2769332048061,5.56341283234686,5.02264530114541,8.45577590170721,4.16788820578406,12.6079459438804,5.92140756662394,6.83387234488365,7.26648885373796,11.9888946155494,5.59936508243244,6.75683985681548,7.09983973334528,5.02989151764098,11.4768315924949,7.42398477065035,8.04236473466851,11.0431241345152,7.67777109208085,4.74760886894543,5.30722711169298,6.21070586471139,10.530919224938,6.31586436948357,11.1660963091115,7.42703122726703,6.03902477904313,7.36991560222712,6.44804214149391,6.83059220615188,7.2327033195187,10.0916849995997,4.86666373440422,9.82250713010189,6.35609341272896,8.27794607150745,11.4030394181748,10.0244345822225,8.72119923271976,6.54274934471864,5.42515655193775,4.42975872879956,11.6678810754123,7.93404871181428,7.88570916686268,11.9673727007593,9.02130691647033,11.6460838224879,7.32135580516087,8.73229046626866,8.12884515810983,8.20413260213931
7.239911818119,13.1574251981141,7.59466345126721,3.64329928228913,11.1859203916616,10.6898787543454,6.41679226710788,8.95848778270958,11.4813371485557,10.7965449991101,8.82353865253665,8.65414308117068,11.4209706682167,11.5316827029675,7.70311228933792,11.0727487543535,11.3768983423024,11.3269019094747,7.7052661081055,6.57531981286626,11.8654888213934,10.2267404291294,10.8057136820922,13.7181543768906,11.1187263769474,11.8148608803895,10.3121150842008,4.72235352444837,11.3291527244842,11.0270474715667,11.7476076409568,11.4388145121015,11.0854948712964,11.0846552691596,10.9006447824433,12.2137606721145,11.6810140173798,10.5780057574649,6.15898396471517,11.1707009171408,7.84293271089602,8.07622491611848,10.7078467005465,6.9636371245209,11.7433783774925,11.259821003542,11.5275965171487,1e+20,10.838201639927,11.4068082699446,9.9563181911578,9.14004083643964,10.5824016650075,10.4607727878159,11.0460128499985,10.6135880193793,12.0185905287108,7.23162005054773,10.5572706172334,10.9601722673582,11.0331437786869,11.4214557923637,7.52021820937242,11.523750254521,10.6736758922387,11.7100842595274,10.5692778279432,11.5221042816439,10.6210554243751,10.3310132793199,8.22311478912721,11.4485546411437,8.96896271089436,10.8104730924578,11.7560164802604,10.993516639017,11.270313351676,11.468070997012,10.9498883276812,7.42709266120524,10.747873482042,12.4822395673736,10.6730355386504,9.31309765507319,6.58216859917219,6.12903909197341,10.9488810663712,11.3428675710265,10.4197833333087,10.731680809778,6.2924057800641,10.6151754223707,10.8761043802858,9.3998470192654,8.93876057902459,6.80217789086179,13.0081092993799,10.0048817652283,10.4510471349954,11.9425799098397
9.17035864508432,11.234647536661,8.94681833440973,10.1800009129464,3.94406957427301,5.58637860400997,9.41308960783254,6.30964706532899,5.18344124122449,2.75019619905244,7.78509323911763,7.3548822974362,12.1065827529529,3.4473963727748,12.155503517015,2.68426933504816,4.06957814758708,3.74584297666575,7.79141299822084,8.97217218781934,10.2571268824765,4.98775757882338,5.54762754452416,10.4187808222205,2.91647322334557,10.3912296495294,2.78515024781074,11.7636588840366,6.12077592602702,4.21516651519671,4.8273670259205,3.87632887482904,2.5125653866013,4.99965708834991,5.15734448309452,9.9200416860301,10.0465038486938,1.9229018639585,9.35343675746419,4.58636229481026,7.81783668646661,10.4155962898555,4.46543305109165,10.1791747922989,7.98047244573303,4.58699242536298,5.2769332048061,10.838201639927,1e+20,7.77873509237895,2.45040376105749,5.02534376756336,2.76879375894232,10.3680494099491,3.34749587261711,3.61496679712695,9.31992547968977,10.8129207711887,2.25992064163885,4.38712155593514,5.02431100318012,8.02235392042899,10.4255513512293,5.34067295170562,5.33733575932793,11.7002424758757,5.36409686152694,4.80109466416688,1.49981224567798,3.40297807717194,8.48656473388505,3.97915294609539,9.67923621485247,4.99406267770584,3.06150129626921,5.59538312764055,4.09311901010646,4.88649766198958,4.97280300239353,7.9100356726534,4.64454728839555,11.4973078640545,4.10511674358462,6.08240788402125,10.0224414377021,8.50525558425681,10.8587025554873,4.8641809232268,6.22220399864342,6.11583423032334,11.1324236179449,5.22291882220787,5.43399464196394,9.52613573232754,6.56798457561613,10.1013030882772,9.61620575408384,6.28379138730578,5.42958571432793,6.11104775604408
10.7603038985173,8.96505707290727,11.0677554693748,12.1245589596749,7.68860755356378,6.99441886744066,10.3955765420105,9.67552546406515,6.77191020153441,6.79071599414272,11.1183063230807,10.2472827382808,9.40007190755993,7.66298285433178,13.0328272396864,7.63101726286327,6.79606682743225,7.94793235788419,7.78326808437569,10.5925055134562,8.74279897518424,6.34010444224977,8.54815019086059,5.91714213201146,6.91112492489502,6.56353808214432,7.04158221316126,11.2821228120641,8.59110543388504,7.51604595590983,7.09800639090387,7.28043790333463,6.54326855237919,7.44016712805877,8.74348024800057,5.66306180155288,6.92052862965976,7.7921595507521,10.2820261333024,7.14623361049221,10.4113862487471,11.5926547103947,6.69427322780704,11.5484267664161,4.38552415480092,8.4593192055455,5.56341283234686,11.4068082699446,7.77873509237895,1e+20,7.80873764850111,9.62907557754371,7.2143962380985,11.1035828307127,7.33163424153121,7.52895698180999,5.50440480915921,12.0316024156624,7.30918763060295,7.08083477072151,8.61103091779045,3.38949220077292,11.8812667479486,7.37758598411801,7.55708586187882,8.37183660503577,7.10101532517027,5.42683792678759,7.60087681357962,7.86788663217184,9.63008237732354,7.52937372652251,10.6096690401561,7.10573785637342,7.47923509695493,6.87925625422541,8.10431309908549,7.02252383843908,9.2216880122538,9.60372831463842,5.86162844051769,8.17666253464221,7.61119935636327,8.28396816296406,11.4934646742828,9.81247020622823,6.36629635401928,7.30989845109312,5.40817282221298,5.9354640526132,11.5264680211955,7.29099817309189,8.83472281606714,11.1784276349318,8.86965364015626,11.3298045750956,5.23674956972193,8.43929377990042,7.5517509869148,7.58226202988738
8.66185887057108,11.1969008858676,8.50226356972649,9.37291017377894,4.36854788262088,5.94490761840438,8.8569212212766,6.15554037041809,5.80106156754534,2.34189566996077,7.87372957003855,7.12430582180025,12.1627302464561,4.07125540563726,11.3579368610205,2.46280171497279,4.78647390131667,4.25627183042,7.28231793700443,8.51086408461853,10.1856082847641,5.35623098036078,5.96963044257457,10.3862147494722,3.66557382772538,10.2299381442057,2.20109808014045,11.02128023799,6.338165695938,4.70539776886192,5.65673861300071,4.56785315123114,2.58590595312698,5.30247642109258,5.49733938568883,9.7899660622695,9.94943593182228,2.69303124337495,8.96085519269953,5.12049754364555,7.5565739949034,10.1154807920431,5.09410652154958,9.6280956963002,8.26503238957369,4.92206981109987,5.02264530114541,9.9563181911578,2.45040376105749,7.80873764850111,1e+20,4.78992534899201,1.95074780043807,10.5316474476524,3.91780453282561,4.20611279061845,9.10979387086849,10.1112029091948,2.60754151734219,4.98647930994542,5.1517573294363,7.86062243931731,9.81589181496772,5.73520951890263,5.78430252514674,11.6472075467708,5.69949539370335,4.99639612057198,2.09000028370636,3.6533244978297,8.28096267120268,4.48499284394307,9.62899004077878,5.56370739547441,4.00023117045308,5.89493007500873,4.72337259784563,5.37771614204792,4.98858599180257,7.72686843636544,4.26035105509549,11.3327309445306,4.59332593542929,5.96989657925514,9.33644859972924,8.02273531831849,10.599474031231,5.25547345785497,5.81593181908932,5.77454758109563,10.3591554734106,5.66605962878823,5.63862730232433,9.48329604301503,6.71531142518941,9.67064019145969,9.54166822922015,6.40921584263283,5.75739142746316,6.85286507109354
6.56391073949323,12.5131211595885,6.17502139903604,7.71712257606211,4.85285852181422,5.71938777583655,6.95242820043966,3.76811797728291,6.15578555341778,5.79296145758204,4.28291439145354,4.47408826409985,12.4880117857938,5.68671593911437,10.2883277449708,5.93310146318312,5.8632099658444,5.08759215850617,7.20030313973852,6.49237198022427,10.641343059293,6.05263461381718,4.79490080377514,12.6498159610104,5.39854833113051,11.3698444201199,5.03102184274273,10.3827986948128,6.90944000815985,4.87611764497472,6.26395536355109,5.60966162953745,5.85161970000555,5.12777475387311,4.62463262465075,11.3749276263186,11.1109412846959,4.50385532707947,7.37171123466809,5.43030947261785,4.93009084281232,7.85642279340931,5.78867981736117,7.72605502844104,9.17023600927361,4.52863170708753,8.45577590170721,9.14004083643964,5.02534376756336,9.62907557754371,4.78992534899201,1e+20,5.51522302749072,8.89045543477124,4.83510341970257,4.26227498475893,11.0361858357574,8.50630573979403,4.61268369641681,5.3598501692997,4.60606910024333,9.93286572803154,7.75557240792501,5.59814856314103,4.9212491693125,12.1913978682344,5.24038941581631,7.45009187282389,4.77437466947217,4.1361345394637,5.67992178379292,5.73850887575052,7.68620600328197,5.24786665107395,6.01287458842804,6.31597471155584,5.20027134832925,5.72032569977604,4.3635271194519,5.43824283612895,6.92444297897277,12.6934969599424,4.7882262420441,4.77256314513415,7.34837813907894,6.1687342453402,11.6115963399203,5.7203609032148,7.33792254665514,8.4693436873874,9.1919437743629,5.85996607385502,4.36094770625111,8.10250891473116,4.44203118404302,7.40909583921096,11.207622632822,4.52814981716716,5.09210946928899,6.33995456515567
9.07695165195538,10.7626741215878,9.01647308058694,10.1459188347119,4.38634059534263,6.03399572923346,9.21602144103752,6.38523864516957,5.74627133720755,1.52418951088413,8.26958430411274,7.53632941965486,12.1059130310278,3.9938055303443,11.8754641006056,1.75968211183893,4.54188411374671,4.28291530469051,7.15511627749266,8.91656180690475,10.1555000300589,5.46928100664515,6.05756191995325,9.38568129410501,3.78457673647337,9.89352023975581,2.71900231084101,11.4672418916938,6.58811044823726,4.84323195326188,5.67247807260377,4.42759857929531,1.82971456664231,5.28937307829934,5.54935498873513,9.10910741726019,9.50848814685932,3.0008948759806,9.57589779799931,5.18918121156055,7.89686930410865,10.5875362250123,5.1422432181475,10.1196198151518,7.86289208769056,5.02029764425526,4.16788820578406,10.5824016650075,2.76879375894232,7.2143962380985,1.95074780043807,5.51522302749072,1e+20,10.8896707996126,3.80466197628898,4.39666089184103,8.32900341780275,10.640147256591,2.94095189282286,4.98145925214061,5.21843946568801,7.1803539277985,10.2571579300463,5.67138742191104,6.01481791921139,11.3170484244937,5.85356077131616,4.85739284442549,2.49836095610145,3.74190920168164,8.59401847352964,4.65033972803265,9.95965504038731,5.69875319370991,4.0948084248705,5.92906347719509,4.7011260952814,5.33374734731678,5.22072035530935,8.14535032178906,4.04643126832798,10.8398505198216,4.54751727113748,5.75259129968629,9.84494193844942,8.36502363533772,9.94887189782295,5.13031696343041,5.58635807267488,5.36288111480847,10.7928331320446,6.02921942555839,5.4840149812569,10.0903798481555,6.97187714904062,10.1472687382887,8.61450555120125,6.48226996874019,6.12413339130579,6.60042656940956
7.6161185345243,11.7984112603796,6.86424738146179,9.84081609517239,10.1086919267003,8.08727450186188,9.80250290550618,8.55401584646882,8.84847934699201,10.6173656697579,8.16327975811296,7.31887977260293,8.65214461764591,11.5269024976244,12.088236601286,11.7202237212258,10.4395145805428,11.1723546634371,7.577072575493,8.61723159478465,7.4036390477931,7.47488210764266,9.87199474291137,13.8752808332095,9.77257053250618,9.77976500136016,9.83044311401923,8.99805753663497,7.26567310271674,9.70968261449998,9.46819435656675,10.991107859005,11.0472658414783,9.41908343828094,10.8590972425806,11.6819129473571,10.8986445417314,10.7722138865882,7.18899981566465,9.51530282201465,8.52478736973888,8.57962077715395,8.680406208679,9.00035883075743,8.84551924835633,10.2661156812759,12.6079459438804,10.4607727878159,10.3680494099491,11.1035828307127,10.5316474476524,8.89045543477124,10.8896707996126,1e+20,10.1936892394509,9.28721321748034,11.7498559675745,8.88943631191715,9.55146654693845,9.23037230296701,11.3173201461675,12.8944761559384,11.5917391073864,9.20092947518186,7.15442799711555,8.81659581424363,7.76554439922274,9.75481238480379,9.90502556930637,10.8782020465239,6.62501663077718,10.5080768722429,8.66503424105735,8.26393778463617,9.63483452418106,9.02699843203003,11.4965965384956,9.9896583818019,11.5310880690225,6.9188236169434,9.10333597876909,11.4498179069972,10.9267666549309,8.08182579577472,9.05374873011689,8.70087748954575,12.6733535579424,10.7860006561325,10.2297602405078,10.8605398223309,9.98887011582002,7.30106891459363,9.85122629987959,3.1132542606783,8.76200822347805,8.561901829768,12.5427325715767,7.00810063197372,7.97423319826346,9.30828481502192
8.98036212301717,10.9130397452773,8.80571994593139,10.4136393078029,1.83227297733855,4.78549322148723,9.27697438569946,5.74454573406784,4.27377227987892,3.66691641728593,7.45676676944287,6.9309214706301,11.8978696565198,3.59886551692214,12.0954125345568,4.05296520081249,3.20111049116255,3.14486542916438,7.39083478265014,8.78443182644383,9.87456952532917,4.43602097762447,4.19621197697826,10.3984458454189,2.10341860181367,10.0562007605643,3.42069954302615,11.6922107024583,6.15137005783275,2.87556790648535,3.42899546460608,3.35139661378602,3.33043896329149,2.90115057560347,3.53044635747662,9.48924498157023,9.40638727121827,2.85884783870533,9.70520408012442,2.88908718135477,7.55368570000117,10.289478785875,4.06526003218515,10.146694694284,7.62539357694409,2.60599889806438,5.92140756662394,11.0460128499985,3.34749587261711,7.33163424153121,3.91780453282561,4.83510341970257,3.80466197628898,10.1936892394509,1e+20,2.08799057013264,8.93478453548704,10.8349003857195,2.80508132816515,3.62369637057977,3.35615336971884,7.93567245048128,10.0647118497731,3.5582636320306,4.08130095945642,11.2518963460767,4.30023664145762,4.71622706703997,3.22015785790104,2.48031325831632,7.86310150851465,2.75755181928538,9.56822948211127,4.0438366414397,3.97058051916858,4.05347793810202,3.1568898585153,3.12042420825092,3.59809860795545,7.6610232796356,5.06576587015235,11.1256869707157,3.08235167562549,5.8515334850703,9.95661417593547,8.54662881201512,10.1364659154217,3.10279954082921,5.18252915626909,6.77170748301579,11.0373782001015,5.54258965992525,3.75316300456125,9.99732454935867,6.24534063626083,9.9498514619535,9.18758265566434,5.2434528783945,4.2438573119765,4.71646623216147
8.53565844086197,11.0655228954832,8.26234319330902,9.84759458658429,1.85659974345667,4.04779163279932,8.95033394578756,5.39818837966419,3.547248977462,4.37137306293609,6.77938897126054,6.44417920536524,11.4111933246272,3.79094111023912,12.0984339430649,4.79800381210785,3.19877393683014,3.28808173890839,6.92589731049155,8.34050770752496,9.51337017418867,3.70031308724352,3.66467930668626,10.9741260284236,2.2605190909384,9.91369871640368,3.63190476190527,11.2169374044176,5.51898595549724,2.30351209880838,2.95142187858003,3.44712314576691,4.12104619441941,2.72065771931118,3.64057486663679,9.55328149446003,9.38910200730766,3.16075195641029,8.83251850294521,2.24367790930383,7.07799939249858,9.86202703790394,3.35753780036607,9.79997178897248,7.36163827694111,3.02677317997213,6.83387234488365,10.6135880193793,3.61496679712695,7.52895698180999,4.20611279061845,4.26227498475893,4.39666089184103,9.28721321748034,2.08799057013264,1e+20,9.12001662128267,10.5261254969815,2.7817290488605,2.94129581160741,3.79226930993824,8.39051923664729,10.0711571402802,3.18175859595751,3.13667553203023,10.8997253574878,3.35484530341063,5.05991385508828,3.41998314256049,2.58796328467054,7.09567428677829,2.86197896581559,9.16014124420943,3.1386037201488,3.9225483070307,3.41943942444881,3.33896757069312,2.76387973629817,4.06578871968561,6.88483538419324,5.19862519420416,11.1758927237752,3.04215283765185,5.38026849144848,9.62064495678906,8.03236249971955,10.2577963967502,3.24330814891847,5.41439259500481,7.07218544736213,10.8170684063549,4.3274580054151,4.01810786845723,9.05963153913186,5.51606610766652,9.51097728990678,9.37938672720024,4.76088589520513,3.01695653694019,4.28981714121806
12.3291279439333,7.34557786694577,12.491312878809,13.1111994088237,9.03445673998403,8.40931411664554,11.9315591167463,11.1032188169767,7.85067902659983,8.28484971237045,12.4724675593669,11.9089000867369,8.52459529221864,8.8573017750834,14.8795629513355,8.75141668444258,8.05028693730897,9.16306882925744,8.50470098350876,12.2976013896492,8.82793505139738,8.2903793203344,9.54382184865698,5.53600711049322,8.48637520041706,6.06380345977078,8.74166640038981,11.9306916252105,9.27110297012208,8.69182500029489,8.24832800557737,8.38910417265686,7.98697345584606,8.63976092230464,9.84550472856683,2.21071788435179,6.15680259809787,9.56004557802115,11.805992422502,8.45141359880275,12.1630349504801,13.2589078788216,8.11713026424328,13.3085243365282,5.39152763188652,9.62946594141447,7.26648885373796,12.0185905287108,9.31992547968977,5.50440480915921,9.10979387086849,11.0361858357574,8.32900341780275,11.7498559675745,8.93478453548704,9.12001662128267,1e+20,13.62616293533,9.11440385921204,8.40832941195911,9.8214759386288,5.99186274901912,13.0620803676357,8.51007600412807,9.07353847605759,7.66393104743251,8.59903775007054,7.35577338178152,9.26799962991284,9.35633367770365,11.3898365570499,9.11974692062572,12.7476117844725,8.64357251839324,8.53235870278651,8.10334715269407,9.18810632587254,8.24317671838746,10.3698321754089,11.4613026542217,7.51509288680369,6.72660330018529,8.89955059475025,8.38026105908862,12.9872052066342,11.1161667062945,5.46016155903113,8.4793862086176,6.71150293970628,6.75183559912563,13.3680189040312,8.72262837710259,9.90067297440188,11.9770123569063,10.7523055308998,12.7697748869404,4.0790784244666,10.2908567378098,9.06145628024851,8.30887075874471
3.62484326747024,14.8636221478575,3.97118343586943,5.68296328394461,11.0401892816132,10.9049025162355,5.10882398871305,7.40233948431952,11.8678105165055,10.7025769565385,7.24333058356312,6.11173888930115,12.9753625838029,12.0893474184108,4.53847980962345,11.3702127204975,11.9486384833262,11.5365064835654,8.77158617885707,4.32346825664938,11.9620783267386,10.1557864448434,11.2159139230482,14.4247795003735,11.069657408206,13.136322034812,10.1009943864937,6.43062239605929,10.9925742951913,11.4497214967673,12.0765933348054,12.0167674638606,11.1573328045097,11.2957206699453,11.157442625561,13.9643755767447,13.5915077301649,10.5842338335411,6.36956867900349,11.5014760311573,5.60287985873257,4.93075125026109,11.1884465276589,2.37776078487465,12.1816889079732,11.1543022990944,11.9888946155494,7.23162005054773,10.8129207711887,12.0316024156624,10.1112029091948,8.50630573979403,10.640147256591,8.88943631191715,10.8349003857195,10.5261254969815,13.62616293533,1e+20,10.0644037976855,11.4534142158508,11.2691434118153,12.3910251316219,6.17843740829203,11.6514047494446,9.97301916461986,13.068280018422,10.6607896545883,11.412654077377,10.3725724677263,10.6232215793381,6.15476024233222,11.5613870250718,6.01484130495986,10.8557301166637,11.8136356838161,11.6477485667159,11.9106056469882,11.839244162945,11.0031141263527,5.99595691048711,10.4977046091536,14.4800522352029,11.4338163641534,9.32161294619954,2.61698739966758,5.69197300036798,13.441484088125,11.944316857554,10.9955731400794,11.7752344310887,2.94959222186652,10.6429664371567,10.3264316808875,7.85079114488129,8.59880742404132,4.28778222292849,14.2459374000237,8.47286393457956,10.7791496774822,12.1080068890152
8.42961018650504,11.050617294343,8.12561952507144,9.79592670912601,3.09593942286693,4.76029523925862,8.96674265666377,5.76610209768641,4.59905662486127,2.72187655409121,7.35045206566298,6.55615710473682,11.5591492254511,3.8212207267676,11.6542426258654,3.57371828730775,4.0183718328974,3.75111180281493,6.87982605091307,8.33993603457727,9.48477940621477,3.91921485736271,5.29536583093411,10.4250965260384,2.33016253714533,9.82873151638231,2.10424073716419,11.0406164951631,5.71018188895327,3.66383627576312,4.23923044901654,4.04272160769434,2.79355948636024,4.20912608986509,5.01112709005,9.69662104590838,9.61611983007288,2.42223860868925,8.87622149656345,3.86277656698744,7.19625515068499,9.91043160515687,3.90264863327479,9.52852084911603,7.44406864518969,4.12501817045048,5.59936508243244,10.5572706172334,2.25992064163885,7.30918763060295,2.60754151734219,4.61268369641681,2.94095189282286,9.55146654693845,2.80508132816515,2.7817290488605,9.11440385921204,10.0644037976855,1e+20,3.886081762591,4.87096856548744,7.96577701623138,10.2779532022381,4.51730450607954,4.08403593792222,10.9323858760058,4.37500311631179,4.30371478900851,1.51136015501646,3.33324428991417,7.50645101481125,3.49242646511487,9.23370268823432,4.15386642900047,3.23269251034769,4.80253366139112,4.46352580103467,4.26187303385242,4.92652330932714,7.09693917153841,3.96426315820105,11.122197157085,4.22837634461222,5.72709515840056,9.42488372979428,8.10617842030986,10.5587043720804,4.69616260877323,5.76794551287883,6.0565209324457,10.4428596419413,4.47175494609829,5.00094997914686,8.79288527705304,6.16846735792402,9.62495222450048,9.4807742897455,5.29555217743998,4.50133582653464,5.7309906440667
9.49078270141137,10.2357447052381,9.24699018230349,10.5783465715014,3.49638384383883,3.05938538538212,9.77094353766443,6.56083692077811,2.39901232767404,4.91974983347273,7.87201301875453,7.51866981376451,10.4629477684754,3.79454166318712,13.0570597822699,5.53162093694447,2.37374992029672,3.5507655910402,6.92065732409122,9.40181376368599,8.66724470048433,3.77433096350171,4.31389390608461,10.1764037518054,3.33763183172493,8.95190832081542,4.24295053199333,11.6327509720739,5.27747017776467,2.24597557470419,3.13941650511275,2.90399594711951,4.51476055299604,3.03553013764809,4.83171374923221,8.67093934981736,8.42387839204522,4.24153623033147,9.16928922426571,2.88555286721682,8.1977732409733,10.5693821676803,2.14903672355591,10.755742628089,6.42958579910854,4.11851421502894,6.75683985681548,10.9601722673582,4.38712155593514,7.08083477072151,4.98647930994542,5.3598501692997,4.98145925214061,9.23037230296701,3.62369637057977,2.94129581160741,8.40832941195911,11.4534142158508,3.886081762591,1e+20,4.72765155967722,8.22517094769235,10.9725903662206,3.24347196128216,3.545598190505,10.0186752092604,2.47278810966834,4.93145462058649,4.33115932180292,3.95378086080556,7.7785901974721,3.75509665721161,9.88908002054756,2.08516947999011,3.58158157481661,3.26752285601571,3.99362253458947,2.96959769734297,5.30210893853766,7.67225009593173,4.98052380544429,10.2359844528676,3.39263453934033,5.61303446616148,10.5424344213451,8.72007102822781,9.56129136573095,3.54720295313287,5.3982879174955,6.45907506395806,11.6658362617632,3.96945080977213,4.96552115162888,9.06060895482269,6.17797429145634,10.3105638212162,8.42871041491015,5.51154550770838,2.98011767570586,3.95022741944761
9.4199015745946,11.6430179328491,9.35450227525445,10.209801573585,3.30389393473405,6.02586589722147,9.1645069439433,5.97764205425625,5.40877769619723,5.42666939494631,7.17741742764853,7.42337710039418,12.9285868428504,4.1648510842783,12.1003354299882,5.13267376471486,4.24784784470891,3.37320714291844,8.64616383495482,9.07814276022525,11.1762038543319,6.73722598905518,3.44092303319261,11.2440875385808,4.55815343809645,11.1872116620786,5.22537151400448,12.3114074860178,7.80396865282243,3.67401392781703,4.88702487295264,3.89998562449898,4.81973402195188,3.37285446623371,2.06768703841485,10.2385401457298,10.2529892365355,4.27315026209833,10.1742115765296,4.06498295799744,7.66387063240658,10.3563998374999,5.75281697656575,10.4037630056844,8.93230015376433,2.45980762248239,7.09983973334528,11.0331437786869,5.02431100318012,8.61103091779045,5.1517573294363,4.60606910024333,5.21843946568801,11.3173201461675,3.35615336971884,3.79226930993824,9.8214759386288,11.2691434118153,4.87096856548744,4.72765155967722,1e+20,8.65887628302105,9.31059518668359,4.13435430291008,5.53283242342531,12.354862037552,5.50764239248426,6.74300025243672,5.14009785649682,2.9204815460965,8.27959996876721,4.2278948772345,9.86286347281724,5.30077550565276,5.79972153687479,5.26474546513564,2.65987828971066,3.65914169667831,1.68324137912825,8.21509533860685,7.10119454982069,11.9812769327373,2.64020119096165,6.29057639009189,10.0811492279696,8.69495741950779,10.4531877838623,2.97936359493478,6.18103147409413,8.0314415186868,11.4283468662726,7.10250592023959,3.36790869899633,11.1374263179387,6.13493755697982,9.96657715806957,9.76685714201855,6.27047965816361,5.18405071680022,4.99020578429191
11.3627662173906,9.86536762503727,11.7811244769097,12.1693782406678,8.33080337728899,8.50685073988473,10.2526132072148,10.2036039475552,8.21357588378775,7.03654857483625,11.5024913404922,10.9715959273409,11.1306098103857,7.65052005935364,12.7588722466878,7.20382536448186,7.5655122272911,8.10537090448045,9.02381793923238,10.9257542666988,10.7342333138433,8.16424602960305,9.21203632781403,5.27452020106592,7.83040828062986,8.24839785908074,7.71632703028042,11.9802764287596,10.1846210578402,8.34577177694041,8.33963496515032,7.60721319486865,6.65540255637461,8.51145623181475,8.95268265640891,6.1325040360655,8.11529360507452,7.80212127393254,10.8989585004436,8.23151624510663,10.6976278275579,11.9752613295501,8.08841210757999,11.7946243109327,6.3734715298301,8.98574052543713,5.02989151764098,11.4214557923637,8.02235392042899,3.38949220077292,7.86062243931731,9.93286572803154,7.1803539277985,12.8944761559384,7.93567245048128,8.39051923664729,5.99186274901912,12.3910251316219,7.96577701623138,8.22517094769235,8.65887628302105,1e+20,11.4044086228894,8.64924041241334,9.07112460444783,10.0517855441578,8.65467010531171,6.99171886705172,7.98013723445669,7.92285701478194,10.5796988752451,8.16134246492369,11.0326643798265,8.49107553006772,8.39777006192533,8.31933399976746,8.10392645785892,8.06460036223321,9.10654376415624,10.4645354862808,7.27478659012663,9.19601853361562,7.85490952454531,8.77782441838982,11.6664082024995,9.91664631057678,6.33952066168502,7.94551796706306,6.61673890999868,6.61725598369338,11.7111516395882,8.71823745904727,9.30995408004591,12.6280673184177,9.32753372339192,11.6305089508695,5.27971042552136,9.63527864436208,8.97654633279872,8.75505284975925
5.76936533082192,14.7574651977128,6.50497292325421,6.20776550929826,10.332541961839,11.0109567579435,3.91116552417884,6.65620842919956,11.5189765516222,10.6133442081795,6.43421519662008,6.83843001983778,14.2003658769873,10.9258959660299,6.19044798246522,10.5549752559201,10.8870183762895,10.3047972367992,9.74969433010154,5.24448084526543,13.4648681501544,10.8730353130424,9.61331526680971,13.9970244430163,10.7888853622669,13.8968185249335,10.2262986309113,8.86748370788959,11.7222764949252,10.6246363846731,11.6364070835654,10.7899481144026,10.4968729079207,10.4258565378946,9.19486395228581,13.319495179925,13.4126815764797,9.84526301388248,7.82958084567946,10.839732325125,5.55115843160343,5.60226417688385,11.1574647634024,5.05415073756767,12.3498155203951,10.0803196800799,11.4768315924949,7.52021820937242,10.4255513512293,11.8812667479486,9.81589181496772,7.75557240792501,10.2571579300463,11.5917391073864,10.0647118497731,10.0711571402802,13.0620803676357,6.17843740829203,10.2779532022381,10.9725903662206,9.31059518668359,11.4044086228894,1e+20,11.094998032445,10.3853246543382,14.4382668105509,10.7067965605271,11.8266376702611,10.4276235499379,9.16100902160963,6.9160598610973,11.0633180422226,6.49239104778043,10.7397426306223,11.783395534932,11.3068453452522,10.0508424997689,10.873025653102,9.14191674932725,6.92893016387742,11.3003564001324,14.9258347445299,9.72196535048292,8.60979458736487,4.60562780245642,5.223145095149,12.3254228074615,10.461627995792,10.3505827892233,11.9434049374356,5.95909137201589,11.4098635986732,8.84198415863007,10.8905306838744,7.44365251737644,4.57984965171947,13.3065212411852,8.61124254413178,10.6436239191289,10.9728043863642
9.65134089067488,10.0106122718291,9.35787608736728,11.0522892050653,3.24870958020092,3.70119742228407,10.1439441581823,6.7196999932004,2.88972453080778,5.48145895657326,7.92050879563203,7.62597888736195,10.5117934246801,4.80578371461978,13.2373741301051,6.13318800159263,3.68602932289353,4.38648024583121,7.31019220144647,9.6734552700984,8.66773938268816,4.47370356787339,3.77839867782264,10.622473286942,3.63302560971157,8.93324282320319,4.92447000315342,11.8639064793754,5.72464084249563,2.8409926497988,2.96017430836254,4.06140907889379,5.09362196866274,2.06888181105622,4.11813804270714,8.76370890008742,8.56145970056691,5.25416239968775,9.80870445758314,2.47211114034762,8.47275467441916,10.7632117072843,3.72674647920877,10.9963332050134,6.67551137840244,3.16235465597287,7.42398477065035,11.523750254521,5.34067295170562,7.37758598411801,5.73520951890263,5.59814856314103,5.67138742191104,9.20092947518186,3.5582636320306,3.18175859595751,8.51007600412807,11.6514047494446,4.51730450607954,3.24347196128216,4.13435430291008,8.64924041241334,11.094998032445,1e+20,3.19504601040679,9.96496196065002,3.06821438588059,5.11510208989912,5.086929773037,4.52810696179806,7.82997221492199,4.02829780190752,10.1426464510751,3.24487738076864,4.38961239655473,2.9194958931854,4.37021141793534,2.23307741794149,4.86697739626123,8.0033877749471,5.4730334166812,10.2364752190608,3.97529219174046,5.98343481703916,10.793468590681,9.29401349584929,9.71435572412012,3.16419460582485,5.43628549079088,7.1181479761843,11.9697264004681,4.85306561434807,4.48829192224533,9.42740078897548,6.40650694051204,10.5839953301271,8.58712946153202,5.39047971170019,3.06027422327422,3.36348324683896
7.93369851777504,10.4830475887361,7.46845697060059,9.96674218596742,3.92164887502241,3.13931062437027,8.94614951902418,5.69666583924374,3.30166601403638,5.67497945349003,6.75213412001396,5.92113176618547,9.92578238742237,5.79480705954246,12.1845882437551,6.75118657137471,4.53880947289918,5.27728346622559,6.21531356585021,8.19663882402523,7.71420738958544,3.07201448544243,4.7541226305647,11.0729396843626,3.8882432790425,8.80958576566472,4.81213760812814,10.5557901260504,4.76611694651792,3.57622040772873,3.56114646201622,5.07249116913757,5.64627186886678,3.28619295037697,5.31405301962253,9.26428659616109,8.87283327141451,5.33710385015531,8.1115715677162,3.40589224683346,7.06564358343483,9.10742484367604,3.41657764347544,9.40115320714828,6.26040866739008,4.29560242916548,8.04236473466851,10.6736758922387,5.33733575932793,7.55708586187882,5.78430252514674,4.9212491693125,6.01481791921139,7.15442799711555,4.08130095945642,3.13667553203023,9.07353847605759,9.97301916461986,4.08403593792222,3.545598190505,5.53283242342531,9.07112460444783,10.3853246543382,3.19504601040679,1e+20,9.39446457981741,2.2831893942905,5.21653259583213,4.86088389568417,5.12175752737001,6.0289547104914,4.59310915818544,8.51284921472276,2.52032695716601,4.61572531863264,3.60757321621938,5.62934616087695,3.7417034809603,5.98996431437947,6.23125769265274,5.13544609737688,10.5174045395405,5.07200049390334,5.16545717603718,9.2695098941916,7.94574410928929,10.2627291458386,4.79138573208203,5.84157314969502,7.33165437212788,10.545872222571,3.49096050048372,4.85549678605075,7.22590786149792,5.71829460228164,9.0211358734184,9.39911677239586,3.81190943323441,2.53102977266137,4.26075921359229
12.0666095146331,6.7210881053694,11.8928094170402,13.0068372963877,11.2511362887373,9.13886969215443,12.7937631632518,12.0918269471742,9.41088681512258,10.9567389523904,12.7401516846376,11.7391124317929,4.25443289109275,11.8546001611035,14.8094752172451,11.9934509117018,10.6093075432324,11.9751133743485,7.52100343174607,12.4326824273662,5.57638658448274,8.80284093719445,11.4150554548589,9.16896207518955,10.7328025186428,3.86586549754046,10.9412107393843,10.1832082910206,9.31715797914589,10.6727709783699,9.9836547970152,11.3047132535996,11.0846202251797,10.2763014490183,12.2402248978612,7.25941489941004,5.90400816982495,12.0478808433004,10.9718141651064,10.4072414722688,12.4484866703626,12.7544270853427,9.46159652559014,13.0658130809548,6.60660804033946,11.5344175891731,11.0431241345152,11.7100842595274,11.7002424758757,8.37183660503577,11.6472075467708,12.1913978682344,11.3170484244937,8.81659581424363,11.2518963460767,10.8997253574878,7.66393104743251,13.068280018422,10.9323858760058,10.0186752092604,12.354862037552,10.0517855441578,14.4382668105509,9.96496196065002,9.39446457981741,1e+20,9.26770380281063,9.46004269450381,11.2602188501253,12.1059292244968,10.8289585913364,11.2047774070635,12.4760992459431,9.52893230220162,10.3822248079082,9.41436677683966,12.2276144266318,10.3638291179974,12.9361398696415,10.9761017238971,9.22093827765442,4.97485894674116,11.6338325789653,10.2655646538744,13.0604985334728,11.8877022221816,7.45665549737335,11.1338641053473,9.65772588062062,8.50963741641239,12.8960257835054,9.00395979367094,11.6708813074424,9.54480642370875,11.591103671705,12.6004591644606,8.3475287748936,10.3173256214886,9.69095435618421,10.0486623033427
8.64745191042073,10.209036076406,8.3289028008598,10.1600813721163,4.05464689919445,2.28642397528188,9.25624858650805,6.24317654295051,2.43457300035759,5.63268369189416,7.36685881241179,6.75389738443258,9.69253719828736,5.25023242265022,12.6441911946073,6.62352903826748,3.79182141259956,4.8975552280771,6.18417346092075,8.73561366524486,7.72298896482446,3.03489612901277,4.64602115684682,10.6212403885765,3.9945585857455,8.44829813350313,4.69864798126391,10.7952592274111,4.73657685163857,2.95892184673026,3.43569931215827,4.36792698940458,5.47926241018018,3.13189720959142,5.44420886852676,8.70298023049125,8.40214635121278,5.2907557278657,8.29443007651794,3.08258152364317,7.69072247552238,9.76659286836188,2.47306174176733,10.0170974276801,5.91970057158833,4.60705676016912,7.67777109208085,10.5692778279432,5.36409686152694,7.10101532517027,5.69949539370335,5.24038941581631,5.85356077131616,7.76554439922274,4.30023664145762,3.35484530341063,8.59903775007054,10.6607896545883,4.37500311631179,2.47278810966834,5.50764239248426,8.65467010531171,10.7067965605271,3.06821438588059,2.2831893942905,9.26770380281063,1e+20,5.09812323190347,5.01785967404825,4.92444609741389,6.60829444179279,4.55826979302126,9.16408840696683,1.71979183496282,4.31380961410958,3.09236530040669,5.25862566571206,3.4961018123417,6.14571542756645,6.71989201638108,4.8660282373719,10.1081751808274,4.50888386349693,5.35587811697218,9.84876723212284,8.17551947178667,9.69679788225583,4.35106447166117,5.43413879170805,6.90781952862504,10.9931947978416,3.2527177625911,5.29780791361142,7.74548996312386,5.84816236155572,9.5964828448499,8.68333812445695,4.53780981789013,1.91570029171934,3.974033254224
10.0134057752628,9.36666097006646,9.82284108687582,11.4867955172824,5.21595887221743,5.26735005002314,10.7520202590942,8.11847899107658,4.77082962613578,4.11480322945453,9.87619947818242,8.68510658904942,9.95017051328136,5.55573108668424,12.9576648911436,5.39173333123396,4.84760884479994,5.70541104122734,7.53279103514816,10.1786705668775,7.75481890488833,4.26925475301594,6.91135024021942,8.70439090690653,3.70934290019774,7.6276674594542,3.453445980646,11.4206312031639,5.46374677790193,5.17474255079666,4.74160238654524,5.42354104954613,4.189645735624,5.27436558526173,6.93308204368836,8.06491796622533,7.89657604904011,5.4072553600978,10.1038964467967,4.87804532048866,9.51103323412668,11.2361937283975,4.55203375585144,11.1877980816086,5.70024248511774,5.79759330047623,4.74760886894543,11.5221042816439,4.80109466416688,5.42683792678759,4.99639612057198,7.45009187282389,4.85739284442549,9.75481238480379,4.71622706703997,5.05991385508828,7.35577338178152,11.412654077377,4.30371478900851,4.93145462058649,6.74300025243672,6.99171886705172,11.8266376702611,5.11510208989912,5.21653259583213,9.46004269450381,5.09812323190347,1e+20,4.51995986880918,5.98943812108265,9.10201697283559,4.76512018372366,10.4807142007181,5.10089302022637,3.9445715567719,4.96766972591708,6.1989792668738,4.86500571052495,7.02205072091853,8.87570259486392,2.66562828902224,9.07489159574284,6.02376168585675,7.37860360638802,11.0520668274178,9.84871113071263,9.50487637139376,5.44949044114497,3.93928383291695,4.44871280693573,11.6501519558596,5.31985718921419,7.06283093391433,9.42394234868859,8.28723575880919,11.0278327356542,7.95759632070006,6.86772412752896,5.57704282509028,6.25040120426373
8.7994651335944,11.0474134518226,8.50216955307441,9.90776016114585,3.79808291006129,5.24475836100959,9.23093369270723,6.13391647490994,5.06186549417688,2.3181648118766,7.63262788830811,6.94719516684472,11.8510663706951,3.74111605585909,11.848719474119,2.77291124128131,4.24672703780259,3.95016415585287,7.25536932018553,8.66501229800897,9.77039583744022,4.50386354908203,5.69342934625028,10.4014540054793,2.72563650994207,10.08112423711,2.25870675823931,11.3476985821747,5.85245026347628,4.15965699361135,4.83349206957926,4.23837351914485,2.51910181944625,4.80292411691427,5.24602506040921,9.85923427638456,9.80622721448227,2.09242564604501,8.98689557559506,4.50555209004439,7.55817235359894,10.1173029657008,4.30261416117731,9.85474458214915,7.77886249998115,4.4598654304541,5.30722711169298,10.6210554243751,1.49981224567798,7.60087681357962,2.09000028370636,4.77437466947217,2.49836095610145,9.90502556930637,3.22015785790104,3.41998314256049,9.26799962991284,10.3725724677263,1.51136015501646,4.33115932180292,5.14009785649682,7.98013723445669,10.4276235499379,5.086929773037,4.86088389568417,11.2602188501253,5.01785967404825,4.51995986880918,1e+20,3.62133074527001,8.02414943084972,3.81547262123681,9.41007529956739,4.76250074160427,3.07459412062522,5.35429584995677,4.56261376949455,4.86355154345112,5.05467405328208,7.5452811610926,4.1074251612005,11.19009748015,4.41313917648725,5.87431712916039,9.698007681386,8.31972849408928,10.8014798160058,5.02879596509296,6.13993638372395,5.9792416888361,10.747140226853,4.78670341554125,5.34387282488651,9.02274219604996,6.45021475572537,9.87246884759755,9.56643029039879,5.82832484449045,5.10550678665464,6.13980230950788
8.74429634853914,11.61534636275,8.70156447677671,9.54828965335257,2.52308174698577,5.38811899265504,8.47472057524207,5.35121113670508,4.89184912071198,4.1516148899868,6.84642620781957,6.86423644254717,12.6039290746204,2.99694639306915,11.6397645516904,3.84572485667055,3.4094465256764,2.5885577409073,7.67667834643904,8.30765314764171,10.9121887413034,5.37761713715272,3.98765131109718,10.8068374446173,3.29147606142505,10.8991682154558,3.84753905164496,11.5875657781162,6.90430913240834,3.11910084753507,4.44585072876272,3.02264902550594,3.62098836595598,3.83979206443215,3.1679859122738,9.85524629919352,10.015087146622,2.31259640160199,9.29672944228279,3.6031342433049,7.00324137282833,9.98021071894166,4.59807331592536,9.74939538461752,8.38348176208638,3.35417070544666,6.21070586471139,10.3310132793199,3.40297807717194,7.86788663217184,3.6533244978297,4.1361345394637,3.74190920168164,10.8782020465239,2.48031325831632,2.58796328467054,9.35633367770365,10.6232215793381,3.33324428991417,3.95378086080556,2.9204815460965,7.92285701478194,9.16100902160963,4.52810696179806,5.12175752737001,12.1059292244968,4.92444609741389,5.98943812108265,3.62133074527001,1e+20,7.75333444371309,3.48422515825044,9.38375035978856,4.58242912104542,4.73015826589829,4.9505920429711,2.27635018225809,3.79789588881779,3.07153986562119,7.43198723010068,6.02991103811429,11.8790901138129,2.19180702055466,5.55592027419953,9.47435616586081,7.78577363084834,10.2071226458176,3.43415399421777,5.76775325722544,7.26108008221842,10.701549325933,5.98815982227421,3.94662644360277,10.4015906295246,5.67776175835948,9.48689365089832,9.45762015257174,5.74887485307448,4.76913933896617,5.30995139056817
3.88434439448075,12.920785593186,3.91193614395297,6.97322798012239,7.89297906793271,7.16280355950697,5.00939412933998,4.31946201616026,8.00681632350044,8.61936566964036,3.96235773956847,3.25528844329817,11.0852482229585,9.3820363187588,8.69058006909221,9.4079548929366,8.55074127680261,8.80979307168255,6.03279104992428,4.19125726213238,9.82893992422636,6.67549665390716,7.30127117468774,12.9893895671711,8.19242401944835,10.9361952873723,7.98130449841075,7.97192755427684,7.97298072681772,7.91615007057189,8.52465139206403,8.93204914388,8.74639219832436,7.48044828805036,7.90348950704793,11.4904208752566,11.2477789704912,8.20746063909835,5.18181924734348,7.94245856225555,3.4913871156103,5.27641634048367,7.65273672577482,5.13525181915612,8.85946158120195,8.068219726379,10.530919224938,8.22311478912721,8.48656473388505,9.63008237732354,8.28096267120268,5.67992178379292,8.59401847352964,6.62501663077718,7.86310150851465,7.09567428677829,11.3898365570499,6.15476024233222,7.50645101481125,7.7785901974721,8.27959996876721,10.5796988752451,6.9160598610973,7.82997221492199,6.0289547104914,10.8289585913364,6.60829444179279,9.10201697283559,8.02414943084972,7.75333444371309,1e+20,8.80790279180929,5.23154533532826,6.97038295583844,9.00241110536138,7.92470496888849,8.87254182208296,8.24601070313048,8.52361148643208,2.3291437510019,8.1830860476208,12.7560694059481,8.09930758271495,5.80305997483507,5.17393743735234,4.31649871250301,11.1979393457052,8.51006074572809,8.49901405331246,10.0214893676766,6.51342633375856,7.0717212114907,6.8524989710314,6.34221675391355,4.29053769739637,4.76665658403186,11.5313480619984,3.87716694226929,6.79889891326492,7.89537037900639
