1e+20,53.199199433,14.343667559,20.789784186,27.390642306,25.536554615,16.53637743,18.881057057,25.3801389865,29.2447666721,20.7730689759,14.4965523882,37.0600614879,39.3887278313,14.284652814,38.6094480322,30.566107614,36.1423026654,24.103543467,13.0626105014,37.20272631,18.997788557,33.709433951,46.2665501876,25.8562565176,32.347680106,24.2239089658,32.122892703,33.5099201691,29.610138604,32.120606653,33.071195392467,31.1419874984,26.6099667189,34.2832860075,30.62703567926,39.0907674847,29.610785168,19.907550802,27.4599263627,15.109359429,19.999770734,25.7056217145,12.686477644,18.8740288354,30.665393736,39.083783713,29.66801465,30.189631805,28.003624458,31.1447362593,23.8504887867,30.66240322,30.582424447,27.365739143,25.198910533,36.34786784769,13.229601736,24.825676171,27.5098693206,35.606428023,32.9440590282,23.790510205,30.540440054,18.0457485742,34.7207525238,18.695887406,25.522312613,28.0101947785,31.3603539212,13.906580351,33.6947934296,19.67048599,22.761132371,29.4088047446,28.436003764,34.92074169998,30.658495719,35.457767718,16.792305453,21.516418911,46.1082441067,33.685450827,22.574619232,15.710125588,15.847841829,38.4083564798,35.94522537,28.399536963,32.568846605,11.377948056,17.580869213,29.3295930376,23.622058387,21.592790528,15.103396756,34.969778472,16.07389525162,23.9788723402,29.5470429848
53.199199433,1e+20,56.143742177,55.495643292,43.378769338,46.448251463,56.893697247,49.378073853,47.1701214505,50.2296539123,46.3375650508,51.5521513188,45.0205634169,48.7728698323,57.595969025,54.2447728782,46.402007126,48.2226410934,46.275328186,59.3183048574,42.721649444,55.61239267,49.826065457,48.5748022799,47.6837878292,38.798588377,52.5494359196,49.818284542,43.3781985966,48.243486304,46.052962092,47.076581691533,47.6930881438,46.8311562129,47.0559571645,48.82936729774,34.3887759694,50.641897901,50.569102067,44.8506413197,52.933064046,47.340847792,50.1835743855,54.245782715,46.0303830454,46.55365289,52.993566494,53.774493576,48.884862133,54.668361711,52.4784563818,47.9628375665,53.848222118,55.347442917,45.3460622,48.871144828,45.66720392929,55.873497579,47.467502537,47.9688939826,49.676927276,54.2737919012,54.9450462760001,46.455613234,48.4608881871,40.9476499512,50.871387703,48.46692121,49.9310543695,49.2280715512,53.942840992,47.8722788316,46.530158101,47.220819525,43.2245557874,52.737895644,50.07518038698,44.204281172,51.697338226,54.989054038,54.148671082,35.6818617763,50.307912127,53.797344614,54.993880125,60.8172586530001,45.5969577668,49.551394625,54.395375475,44.716126505,58.556791502,51.646242413,45.9496379152,58.433862757,52.805423647,45.085853717,48.6281305905,46.00522490354,50.2817699394,42.8832497108
14.343667559,56.143742177,1e+20,21.754986587,31.39622824,27.081321478,20.047414446,19.459827966,24.1806495855,33.0969640821,22.3385242899,15.4258392652,36.2892742959,41.2738944873,17.04901517,40.1130582232,32.637688749,38.893867718,22.318257545,13.8706140124,36.941398353,16.373409926,36.424615534,51.8207325834,27.3935187306,30.3525845,29.1353565158,32.367491723,28.8921395311,28.997009372,35.04859282,38.790532025467,33.0729242485,28.0246156489,37.2593678905,31.82103910226,38.1634433989,33.423667227,23.911018681,30.0983914287,16.112967334,18.531902393,24.6895427625,10.601742867,20.2987390134,34.523290783,41.68856497,33.297686523,32.308808227,29.382490578,33.7177853558,24.9812379997,37.195055559,28.910898641,31.290017682,25.714354206,38.74189166169,11.480264247,24.379900612,26.3110808866,37.591114897,37.2071328702,29.314165518,30.128807039,17.7030481672,30.8263983418,18.455082336,25.218275965,29.4352214735,35.0029847212,17.267768453,36.9061490906,26.231988477,22.304229897,29.4685638866,29.19812224,42.24271355198,33.437786853,39.849930353,11.586946062,21.162428224,47.3009206787,38.187670363,29.334455818,14.420917952,18.604759525,43.0567284828,38.506863837,27.302395953,35.019290785,16.403640161,19.559598612,30.8877501156,22.715454878,26.749778327,15.001239751,38.715382593,15.90925945308,22.0221132236,35.0431991188
20.789784186,55.495643292,21.754986587,1e+20,32.855585994,34.897106598,24.044966036,28.977326923,42.4823379955,32.3916986621,33.8474841639,26.8670208324,38.0921451439,48.5409844583,22.930371223,41.7480552442,42.27014695,46.6425099794,17.778481051,18.4601406358,46.085418749,25.23743984,44.707774307,48.9223597124,35.1595751886,27.323111206,24.5992572508,24.656303139,39.7127946081,34.347130189,45.496298018,45.235906744467,34.8007990063,37.8047390079,43.3401105135,27.13228470726,37.4108606747,39.023112592,16.490418199,35.1000916357,23.885667909,25.148232105,34.9396472825,20.311811128,30.4875150444,40.207431108,36.795800661,19.578914505,37.155089651,29.637892788,27.7143766238,30.1911846637,31.475527788,38.245057755,36.107051077,31.805292749,30.65878506269,23.769078523,28.960153981,35.6365436316,44.386488135,34.7213460972,30.822113811,39.884687777,31.2649825568,31.9208433568,28.722356275,31.882832607,33.2681965605,31.5719095942,21.499457483,43.0684660096,26.024627755,33.29410329,39.4546085936,39.084510442,48.47352715898,41.669391183,46.636494878,16.413494799,22.177744909,41.3631973597,38.864480131,26.582720778,21.072531991,20.235794561,29.0529804058,46.99276008,26.790912251,26.229356297,19.321495462,29.656606121,40.8272700386,30.394336745,24.690093224,27.768615343,37.4664811125,25.94780949146,34.1786335344,45.6440046628
27.390642306,43.378769338,31.39622824,32.855585994,1e+20,28.866691156,25.760198221,22.003001986,24.1788125625,19.2493225689,24.6302640341,26.2709077362,42.6256211499,19.4160641093,26.517068465,22.3570108752,18.778323964,16.9909408106,35.964257593,30.2394736334,40.799548953,27.014997674,26.563263957,22.2875561061,16.9398172168,30.910391103,22.2223430516,41.681185327,32.2389033887,17.309297238,23.393828159,16.586893994533,15.8996986144,18.2449987709,20.4788916835,21.86493289174,33.0055183825,15.577635351,31.7455487,16.8239242516,25.490438507,29.908791571,25.1676957585,28.351542774,22.9700157914,16.28255632,20.304775559,37.979995358,13.723977884,23.650427142,23.6426259578,22.3050986626,19.168989539,49.894662557,13.634471155,14.938030263,25.40119234144,31.672731388,17.203596163,21.9656289482,16.868184039,22.1247994526,21.605655833,20.364735188,23.1438812612,37.5466143442,24.90143496,22.269617315,16.3554841185,15.8970971172,26.380334179,22.0189209196,35.513825703,23.864997372,19.9210659728,27.109972298,17.22813587028,17.069913134,18.869310835,32.265359541,24.963849333,37.0002455689,18.208230886,23.135325103,27.84809221,28.443295587,26.6842320072,21.050340328,25.069801226,23.381850594,34.688512175,28.691341663,21.0587939608,46.206710137,23.850995188,23.753112744,19.996007469,21.88461203108,26.5539917884,18.7828228164
25.536554615,46.448251463,27.081321478,34.897106598,28.866691156,1e+20,26.573584675,26.473001806,21.959845924,26.2048740299,25.8693573871,25.8692614462,41.8475118349,33.5226940487,26.683739853,33.4826905282,28.055686718,33.5367737356,29.109123536,28.9701231816,36.916519753,24.892026333,28.945025019,31.7063815295,26.4578774494,33.415195407,28.5782307098,47.01707426,32.9414384191,25.767977874,25.818994865,30.372271652533,28.4475358067,26.4033401229,31.1872563625,29.98917845074,34.4889037185,31.486204603,28.998466885,26.3029613756,24.999586192,32.315769591,24.397924786,26.732746038,25.8680633724,32.215593383,31.067797847,35.543406172,30.411307552,27.671131584,28.9449677317,27.7408922923,28.281570251,42.333734486,27.558754531,25.56540731,29.39140881971,25.588537756,27.237964137,23.5182344596,32.773847828,32.4614667536,30.64657384,25.381166367,21.2501939188,38.0555385448,21.363308862,27.589147205,26.9859861595,29.9166947428,26.489768246,32.053551944,35.942313972,20.919328393,25.9020485822,27.312633934,35.19004618872,25.056417474,35.120998283,28.393540156,27.634296936,41.0983476373,28.624603435,29.720072381,25.473784104,26.756490173,32.1772323968,28.156614651,30.403695055,29.986213162,29.30724372,21.409080112,28.0916905264,38.48785539,26.634940333,28.20566724,28.063917233,24.29331308692,23.1109542026,28.8577053434
16.53637743,56.893697247,20.047414446,24.044966036,25.760198221,26.573584675,1e+20,17.139546433,24.584942693,23.7514008131,21.6244157909,17.4925263682,41.3167440009,32.5449694283,14.920242657,28.9250516252,26.842360219,28.7824857962,24.001702718,15.0838174158,42.066755225,21.443024556,31.337963269,35.7523722551,24.7292067626,34.814637993,23.4493930468,37.130120791,36.3871345591,25.610947094,28.639785412,30.279956117467,24.5785847418,24.4725358139,31.4075052335,25.87429958626,37.9511284481,26.663386601,18.789863463,27.0035381307,17.303256994,21.4037287,22.9781039755,16.797053832,22.1829456684,29.424963627,30.708019606,28.677201257,26.908659744,26.678270996,23.1461543303,21.8823643027,24.59660005,39.024959573,25.014613908,20.680543476,29.47804451669,20.321272704,20.247506795,25.4733385586,29.966450237,33.3792760422,20.975374184,27.067819526,21.3962681639,38.7868537998,20.875893586,24.76374772,23.6554744595,23.5757029242,16.384078108,32.0109187016,26.242985643,22.30152142,25.7925582146,31.050268699,31.39747030998,29.050404466,31.410013601,18.602033726,22.277162076,49.1468589037,25.70911823,16.4011272,14.281325981,14.904016424,32.0431121368,29.98278918,24.453478731,30.059233008,16.835550634,20.206437588,24.2002600946,32.288124884,18.703375695,16.92577066,23.08054636,17.28289436708,21.2150880676,31.8444109078
18.881057057,49.378073853,19.459827966,28.977326923,22.003001986,26.473001806,17.139546433,1e+20,20.585979361,19.3825925309,16.9014768311,16.7467706492,40.9212889889,29.1598197013,16.054966837,24.6282537792,23.870344735,27.419564129,28.181566576,19.3619499634,39.702246846,21.738717971,26.020407055,29.6014343337,17.5257372574,30.197628601,15.8900710098,40.308228254,30.2864702672,21.754648745,25.652755965,25.222885111533,17.8066112885,22.2618942349,25.4159637625,23.45175006974,33.8363650577,19.955797772,26.465933088,23.4399569197,15.302522006,23.708566686,22.651682627,17.228985832,20.7998639574,24.852926001,21.133215186,35.151704856,19.086462342,24.4485493,18.4800924401,18.3729697315,18.743166948,48.14470632,19.620287528,19.266860305,26.20099500298,18.889671974,16.928512828,23.1543131772,26.007751298,24.3465066522,20.693284925,25.136787254,19.8843336178,36.4757967698,21.736476716,19.376903706,18.3618592065,19.9266317588,21.558162496,25.7330344646,28.799574614,20.809449389,19.5623745572,30.081700433,27.82025430608,22.717549917,26.293539799,21.443359719,18.858330866,41.6437754333,22.62128655,22.756052728,16.601406277,19.093278999,26.5425305488,24.037328534,20.641914942,21.501495555,22.053536671,21.648302379,21.0193845324,40.718494104,21.76469731,19.012979616,21.509462626,15.88698136792,21.4911162162,29.4205043614
25.3801389865,47.1701214505,24.1806495855,42.4823379955,24.1788125625,21.959845924,24.584942693,20.585979361,1e+20,22.9286735559,21.9349190436,22.9340720141,41.5048831324,29.0800207133,23.748690993,30.6683404431,23.846857333,30.1695210801,31.293024559,24.3478422417,34.1114777355,25.4825820815,23.806940847,27.5452980219,19.8263497733,31.684808001,27.1661208863,45.769495446,29.1139911378,20.0861707785,20.324718459,24.446365622033,24.7854684391,20.6232701144,27.603382642,22.15167882374,31.8027945938,27.523308981,25.908277915,20.7606161251,20.980067054,29.2879747325,22.1677395305,23.1804168405,22.0461577619,27.488380551,24.9132111855,42.3828094385,25.3800794445,24.085309023,26.5553168449,27.547086528,25.6030677015,44.1815390035,25.13737182,19.4938944925,25.45392984542,24.9634884045,23.509900437,19.6167841123,28.8070874015,27.6275286945,28.2590755795,22.2524997235,19.5151721317,33.3893693762,18.845568074,24.3218241045,23.564287286,27.6559994011,25.1852375855,27.1019777051,31.521486825,17.225186956,19.866214148,22.327351934,33.02097441728,21.0661209695,31.1862694875,24.4529762475,27.311366779,37.3538354133,23.547842952,23.1358618525,22.7886907235,23.5000353735,26.9113638857,24.578259059,29.761190055,29.3369969455,30.3108818905,20.187406351,22.7295996024,38.3575475945,22.950203044,25.5194342635,22.162259546,20.57944673358,18.7339734779,22.6309443695
29.2447666721,50.2296539123,33.0969640821,32.3916986621,19.2493225689,26.2048740299,23.7514008131,19.3825925309,22.9286735559,1e+20,19.9868935088,26.0293314939,47.9836206154,25.5132671522,24.5172355591,15.2022941111,21.3867034913,22.9058767137,30.3428111841,29.2280717705,46.6717631241,30.2906684681,28.2401109369,24.7565738059,18.0192069981,32.0685405499,15.1357462099,46.8857599821,33.8729759608,20.9397726889,27.8019362459,22.551877256165,12.4321751047,21.7730406115,24.6078724566,20.58120886224,33.6253166781,15.4764327523,29.8912347861,24.8833179679,21.6148996291,32.2528930499,23.225032331,28.8982430051,23.2908593813,25.9260962969,15.8469747869,34.8818926764,15.3074123959,25.1930676941,13.3073404586,18.7427169281,12.0918295733,62.1646773981,16.1038785359,18.3197402509,23.44817465299,33.7782407461,14.9526195729,23.6654925301,22.3258257193,18.9430761573,22.7353076449,27.5632531522,21.5042852979,36.8433240217,25.2001326891,18.6242852631,13.6301623208,18.2400146919,33.8264409001,26.4016881067,34.9975032641,21.6547009241,20.5160096271,30.8331846101,24.77618223618,24.5404170113,21.7802289513,32.3840703881,24.4398421801,39.3393506666,21.5666014375,22.5426572251,25.6192743541,26.4253854461,25.6682396877,24.1368429009,24.5021661129,21.6352259597,36.2812104901,25.7879141081,21.0611261805,55.7890375701,22.0526767229,28.8549810069,15.4856467923,23.13394773002,25.4349886615,28.5397520007
20.7730689759,46.3375650508,22.3385242899,33.8474841639,24.6302640341,25.8693573871,21.6244157909,16.9014768311,21.9349190436,19.9868935088,1e+20,18.0595970841,41.1624651988,27.2564837871,19.4743225239,24.9941246124,23.058780107,25.9286268308,28.0927027299,22.6280551193,38.5004760949,23.7979156489,25.9533511731,30.2525205043,21.3383943575,29.7429438861,16.6796135704,43.8377937159,29.4371099411,21.6075341739,25.3211378359,24.413424507433,21.3221533964,18.2754850648,25.7201502574,24.62251599194,33.8390126539,24.7171267239,21.5835860939,22.2311372459,18.5328132019,20.4616569831,22.0172795651,19.2359209829,21.2951488615,28.3018536189,25.1000217616,37.0482170239,22.2096849799,27.9786686439,21.8176665057,17.354127302,21.2415962479,43.8093652809,20.9992448799,19.3326025332,25.59031173029,20.9399869479,20.3513825428,20.4870595301,27.5848680749,28.3936443231,23.1916361179,23.5703775751,18.4111618698,35.3535846369,18.9991858269,18.0928064869,20.5852224724,22.5020948174,23.4483571649,29.8485364745,26.5019579949,21.2451410199,19.7043283033,27.3519949349,26.75508597688,22.7049376549,25.5526115069,22.4996230419,20.7214835049,37.4079904604,23.2345960529,23.8894721139,21.3105901239,23.1571417669,31.2370488707,26.1322497762,23.5135705377,25.0654039762,25.7571102549,22.0935638699,23.1759018503,36.8339735149,23.1105913909,19.5781761151,24.0412568219,14.13879262656,20.8814554639,26.6445765295
14.4965523882,51.5521513188,15.4258392652,26.8670208324,26.2709077362,25.8692614462,17.4925263682,16.7467706492,22.9340720141,26.0293314939,18.0595970841,1e+20,37.4238881121,34.4674281301,15.205576753,32.1054016724,26.9973289414,31.7241096736,25.8229820262,16.0430196096,37.6705601882,18.4368153426,30.9229327962,36.3318197225,23.1030282518,28.5968409152,21.578740322,37.6802926602,30.5075052183,23.9129108912,28.5298348418,32.188650460267,25.926234848,20.7495144965,32.3961613763,28.71515578746,33.5794973627,27.3591221592,22.6694519874,22.7720100009,13.3891301914,19.0415415972,21.1055553241,13.8910429144,21.3014753676,29.6553317982,31.3255296968,34.2995182102,25.4523222512,26.0276056792,24.7897547335,20.5013861209,26.9863748648,38.3314826412,24.9988913458,20.2218656602,31.57062196489,15.9807811802,19.7420944912,23.9538433918,31.9164916728,32.3191285224,22.2500566892,24.3054969466,15.4282498724,33.497613639,17.2923195572,21.4159596072,23.2143968273,25.6198073914,18.7434170352,31.1574544768,27.4326804042,21.1044616466,24.7456356668,26.6468351402,33.12718229618,26.2290565956,33.0022738678,15.2671172334,18.7598702792,41.3041908069,26.1404233002,21.0678156272,13.9678305954,16.9149036004,33.426248518,31.4617828282,23.3233051312,28.9279216092,18.3957533282,17.5165316064,23.6046857582,32.0936558386,22.3652760762,15.7252637512,27.9737999038,12.6271411602,20.2906225104,29.6883461516
37.0600614879,45.0205634169,36.2892742959,38.0921451439,42.6256211499,41.8475118349,41.3167440009,40.9212889889,41.5048831324,47.9836206154,41.1624651988,37.4238881121,1e+20,45.9256773902,43.0234800119,48.2255258481,41.3381168339,42.7974452897,29.8465789409,39.7860511953,21.6985519969,35.7423786229,45.5828434673,47.6856019571,43.2096693745,27.1803282999,44.2672593997,27.2610664849,41.8087067158,40.6770632159,41.7643583369,41.198308410433,45.0984509556,40.1142014578,45.3188805454,37.96978722716,33.8565407198,44.2950131999,37.8837749889,41.1432693796,39.1900277949,37.4785859739,41.4130329494,38.4803033999,37.3414400769,40.0278576209,52.4162510829,39.0473086039,45.0857049319,37.2306644543,48.1990033912,44.6228117392,48.0536270739,29.9221993389,44.6460664269,42.1486447789,42.32271135759,37.3659032999,43.0102399309,42.2912121005,42.9612976129,48.0440652213,45.6043558109,41.4864542579,32.7410323867,20.5117113317,34.1774759399,41.8232058689,47.4651065434,46.9443975977,33.5845748369,45.8766216915,37.2711795613,36.8524528759,41.2148150653,45.4838706189,42.97812232418,43.0492397779,45.6798863439,36.6035991849,38.1573299169,36.9435834758,44.8801772059,39.3994769739,39.3918102119,42.5364567169,39.3005900577,47.8901761589,42.5959584377,38.3614970419,41.8157278919,36.3753501369,44.0789323113,33.3716157049,41.5566432763,40.6915922099,43.8679416704,33.74726585682,39.1414380289,40.9417523571
39.3887278313,48.7728698323,41.2738944873,48.5409844583,19.4160641093,33.5226940487,32.5449694283,29.1598197013,29.0800207133,25.5132671522,27.2564837871,34.4674281301,45.9256773902,1e+20,33.2842392443,22.7762021158,21.9702699773,18.7486699579,42.2839186063,38.6831752049,40.9993258083,35.6370977383,29.0893892193,21.2243529579,22.6899454239,36.4202336913,30.8500839101,58.6258839893,40.6094377489,21.7394726263,27.5402639903,19.509946942833,21.1095424477,25.0830809342,17.0976059299,35.07978729004,37.3567120372,17.8466630063,34.1889752083,23.9098866249,30.1484204753,31.2476524093,31.3454340863,37.4473606413,30.1593290669,19.6422944644,21.5798597253,47.4234770976,17.3230402293,32.7371030296,27.352378377,25.0306325746,24.8879338743,66.0238021733,18.2837096226,21.9174587683,35.12739652201,41.1759522433,24.3364503123,25.2097451369,14.5617156073,24.6328777789,24.8762276861,26.9842275737,31.6175047641,45.3396598581,33.6382561513,31.6464013893,23.6924238948,20.7962095701,40.0918412823,21.6663960194,34.7162782993,28.3204603613,20.8381409427,36.4485600713,19.61631991968,23.0410380313,18.7834091633,38.9981526903,33.7474360023,40.9077497557,21.7195985834,30.1608105463,34.3718111943,36.2206999963,32.1555757516,20.0085978834,35.1146036353,27.9035283586,43.5912931663,35.3428329853,21.8432635557,60.1701692443,27.6722689063,24.3191548793,22.3562164313,27.16181681552,31.5787400947,23.9313746387
14.284652814,57.595969025,17.04901517,22.930371223,26.517068465,26.683739853,14.920242657,16.054966837,23.748690993,24.5172355591,19.4743225239,15.205576753,43.0234800119,33.2842392443,1e+20,32.9551010542,28.917348617,29.266304214,25.840127686,14.317599462,47.275889993,19.519691631,30.884225361,40.3088841649,23.9279893526,32.918123912,21.8986673478,35.979977276,34.6268140671,24.905402436,29.003350289,29.082027454467,26.170457417,22.4184869909,31.0809278385,31.76853238626,38.6783567935,25.849955096,23.254389623,25.3420254057,14.972150522,22.581348233,25.0083184125,13.073862938,23.4199198384,30.573145246,30.673395621,30.026777359,25.75534746,27.160274575,24.0740393838,20.1989957897,26.764205587,43.345880491,24.447518306,20.589191995,33.73372609169,16.153094242,22.126425126,24.3873746306,29.891657427,33.2114260482,21.0766302,26.902933992,19.9825244226,40.5515663657,20.137435748,22.919279489,22.9498475355,25.0396982992,19.55535942,34.3827432626,26.199747705,21.708465453,23.3863636896,29.474708128,32.57870226898,26.796590277,32.54272012,17.037618886,22.02968627,47.1495140137,26.598401939,23.066299937,13.227496286,16.736393123,35.0140549778,29.93515816,22.901264427,31.968124529,14.901414441,19.317909971,24.5596211636,33.591705189,22.392719674,16.094586858,28.935160731,16.77572996838,21.8734065468,30.8116934868
38.6094480322,54.2447728782,40.1130582232,41.7480552442,22.3570108752,33.4826905282,28.9250516252,24.6282537792,30.6683404431,15.2022941111,24.9941246124,32.1054016724,48.2255258481,22.7762021158,32.9551010542,1e+20,21.1713441742,17.9961083826,39.3877417692,38.4478767876,45.8340697632,40.5555359672,26.4624375972,20.7461594592,22.408409479,34.6489647772,23.2671599748,56.7960722142,41.3451655798,23.7781624212,33.6682153352,22.141755536733,12.8906833808,23.7189488254,21.7906342377,25.24865771394,37.2950711899,13.7267350392,32.2119278672,28.2651995529,27.2904856712,34.7978294758,31.0731121752,35.9829519652,28.9687468016,21.7184614022,15.1093205456,44.2145995432,15.3878868112,33.4160772272,16.9112904799,20.1169587055,13.9214754372,73.1658629772,18.4114458902,25.0647092322,27.17669795471,40.8794661842,20.6081455962,28.3442475844,18.8692547312,20.482135172,20.9994195578,31.1163365492,29.7366802751,44.686054986,33.1823275782,28.2900577932,18.4890947667,14.463019613,41.1069703412,26.5657165772,35.3413587112,28.1852679582,23.7662754466,39.2987416982,17.97956312496,28.0803834092,15.9836197022,38.3894973662,35.0478825812,42.5986090645,19.6984653382,25.7307574272,34.4074994682,33.5035274732,28.0761148288,26.1585414532,33.5964676962,25.6025574312,45.4330175812,32.8674756962,20.5038728486,64.3431206572,24.4282545352,27.8953513132,18.7344842102,25.92474865766,33.1676937758,26.25853995
30.566107614,46.402007126,32.637688749,42.27014695,18.778323964,28.055686718,26.842360219,23.870344735,23.846857333,21.3867034913,23.058780107,26.9973289414,41.3381168339,21.9702699773,28.917348617,21.1713441742,1e+20,19.5509999634,37.615248247,32.2778158848,39.872888267,32.915133361,24.033154789,25.4008659242,22.3910473126,34.704659098,26.6093560736,52.616935806,34.2489792178,16.293555489,23.326244686,18.290904220066,20.9127780977,17.0325997779,24.1885181075,26.65839581514,36.1409817701,20.751178272,30.684097602,19.0117382377,26.442753663,28.758016116,24.074248442,30.066761723,25.9357754164,20.939315872,22.771035016,44.170258313,16.484107584,25.744157293,23.4603985629,21.8084577513,20.782657723,53.453598965,17.992618247,19.806945304,28.27442421011,31.276380668,21.094365002,20.3024856196,22.688492742,23.5510664014,23.45866052,17.85596437,22.7010135239,36.7191452618,24.421188728,24.48674253,21.1043848215,17.8655398232,31.030229285,27.320496828,35.130236591,22.269956759,19.4404831444,27.792713478,18.14515884928,17.036516289,25.571087409,33.456074087,31.697914389,38.7070106126,19.518509455,25.419758092,30.525971473,30.724725677,28.5050057378,21.623526316,31.351521896,27.84309535,37.774094323,25.411328734,19.8086082288,48.367580174,19.688423042,23.347716481,20.674679812,21.73631009446,27.3541533746,19.4191441248
36.1423026654,48.2226410934,38.893867718,46.6425099794,16.9909408106,33.5367737356,28.7824857962,27.419564129,30.1695210801,22.9058767137,25.9286268308,31.7241096736,42.7974452897,18.7486699579,29.266304214,17.9961083826,19.5509999634,1e+20,43.4012248006,35.6948096294,40.7292345192,36.0156379192,25.527075772,25.832340607,23.023871897,34.7716851806,28.4290355364,58.4760591126,37.8270917528,21.7233724774,29.4485302756,16.694974590733,18.8949191882,22.9806181011,21.6643076057,31.77262424454,37.8746231806,19.1660769898,31.6951138882,24.9846307515,28.3748418324,27.7837014586,33.327948789,33.1963438356,27.3727119242,19.0469134874,21.5621691076,48.5818461034,18.0508597184,32.9395966342,22.9020032767,22.9334449867,22.9887326226,62.9655445752,18.9158625566,22.7829375038,31.12456690531,37.9552584046,22.7829172394,24.9483156304,17.7268006796,24.9378387606,23.8928123826,22.058595495,28.5043872565,42.6481536096,30.7556452946,26.4254366526,21.6761063051,18.508588139,36.6124367206,22.7262262604,34.0004705554,27.882463166,21.4982686802,34.0199580838,17.63686436928,23.1968475446,19.3439642346,36.548745443,34.9287475154,40.4783018681,21.2762516722,29.0784020654,33.1980291448,33.7859764014,32.9740900662,20.9816705394,35.1043835558,29.5753555878,41.742935599,32.8884453418,21.9280966988,55.8248751566,27.4212616388,22.7749590448,23.4461924898,26.16436346146,30.6966521,20.7324109236
24.103543467,46.275328186,22.318257545,17.778481051,35.964257593,29.109123536,24.001702718,28.181566576,31.293024559,30.3428111841,28.0927027299,25.8229820262,29.8465789409,42.2839186063,25.840127686,39.3877417692,37.615248247,43.4012248006,1e+20,24.9987319504,31.110317636,25.666300932,38.728506884,39.9499977766,33.1635237496,26.063442808,27.6664694458,21.631504243,38.3219133741,30.600460102,37.487944558,40.390000807467,33.1753277264,31.5820500169,40.1310193085,23.94016478226,26.0253877073,33.55262658,19.758455433,34.2378487727,26.430008552,25.675130188,29.1647625895,22.239007975,26.8623668174,34.169899296,35.568963472,17.618429273,36.687569555,33.272290884,31.8614097903,31.5491952407,30.502145955,32.668035072,33.711215285,29.740055248,29.39750996069,23.527574956,28.794550361,31.3587089386,39.782531565,36.5836885452,31.696191169,34.007065721,28.2488181539,26.6134518588,27.506760231,31.388533855,32.2397675925,36.1995879262,21.218894734,37.6674932426,26.322917275,28.114979398,36.3010426996,34.9733589,45.96082356328,38.171115055,41.512320948,21.74321866,24.849044073,40.5220866087,37.811190444,23.152565752,21.86536009,22.44888226,26.4341315668,39.324847992,31.364761142,27.311912092,19.956064952,24.414557446,36.1680302076,32.119460101,25.050251863,27.340964771,30.990371764,23.245867523,30.2950863476,39.5760843398
13.0626105014,59.3183048574,13.8706140124,18.4601406358,30.2394736334,28.9701231816,15.0838174158,19.3619499634,24.3478422417,29.2280717705,22.6280551193,16.0430196096,39.7860511953,38.6831752049,14.317599462,38.4478767876,32.2778158848,35.6948096294,24.9987319504,1e+20,40.4725513464,18.0454656104,36.5645063174,48.1932434448,30.777601891,32.8541010884,25.9180595352,31.4236638884,36.3043835601,30.0990378574,33.2841418428,35.043724031867,32.9759093092,28.2191981473,37.1583332911,27.68600685466,42.1968733323,32.2449726414,16.4199732808,29.5743380831,13.4118311588,20.4231481888,26.5742946879,12.9855120998,20.0211509992,32.6834899214,37.1850008476,29.2085541274,30.5301487904,25.4361326134,30.3713642127,23.6547185401,32.6418961024,32.1414690804,29.6892268724,25.2858678904,32.08467458909,14.5862820692,25.7487427074,27.8748225102,35.5518859016,32.1628271866,27.7002004024,30.3488782434,21.2749169045,35.0008309302,20.7303783884,26.6713040864,29.0991690501,32.6543679896,14.7373139784,37.783407949,23.5912222324,24.4710912412,29.257337783,28.7353076818,38.28010508038,32.3030507754,37.9790131526,12.6174058368,22.6093563244,51.8110722571,36.1927973394,21.9625080454,13.3838113154,13.7624664134,30.2073498012,35.7095532464,23.5242780844,30.1163678254,13.7794464194,19.0768735778,31.3853392808,25.2642060382,22.1481535174,14.371720786,32.5812888001,16.70677743456,22.7999312918,33.3943146282
37.20272631,42.721649444,36.941398353,46.085418749,40.799548953,36.916519753,42.066755225,39.702246846,34.1114777355,46.6717631241,38.5004760949,37.6705601882,21.6985519969,40.9993258083,47.275889993,45.8340697632,39.872888267,40.7292345192,31.110317636,40.4725513464,1e+20,30.460004606,39.284432016,44.4086156744,38.5609147026,21.744406372,44.0655575928,35.160029302,33.9156045991,41.411870849,38.803125214,40.471318458533,44.3851610673,37.3014672089,41.5440101535,35.66889136026,35.3932867715,44.384429418,33.85334972,38.7341840107,40.118692192,34.898685985,34.5041708885,39.588779582,32.4279243954,40.600361156,48.87652833,47.382853787,41.818832727,40.35237381,47.9140852433,45.2078386883,48.302867181,24.543815586,42.243437451,37.769488226,40.63647238869,37.693722663,41.560617718,37.6669306496,42.882238781,48.4774428732,51.778864434,36.629046326,31.7601697399,18.7710628258,32.902659575,36.087321592,43.6981976755,47.0446666292,32.47445164,43.9557520646,36.63132258,34.075673829,36.7510083184,38.267238559,42.09266736328,39.517265199,44.517017101,33.83224277,34.66552576,33.7603580257,43.92885134,37.643866081,41.844780242,38.19613471,39.6356074908,43.205327653,42.830988984,35.183626961,40.961189365,33.416587575,40.9692610294,28.521970906,39.428165593,36.745076357,35.752397899,32.17507524146,35.8644121026,33.8242943998
18.997788557,55.61239267,16.373409926,25.23743984,27.014997674,24.892026333,21.443024556,21.738717971,25.4825820815,30.2906684681,23.7979156489,18.4368153426,35.7423786229,35.6370977383,19.519691631,40.5555359672,32.915133361,36.0156379192,25.666300932,18.0454656104,30.460004606,1e+20,36.21034911,40.6036042232,24.0817500196,28.723382232,21.4055117818,36.916735591,30.1580138091,25.826374716,30.915765643,36.594643130467,32.9111493207,23.4316206069,36.6775049025,25.16186241426,34.5825085223,33.734945542,23.595133581,24.6013269647,20.979926242,26.841157486,21.3581315785,15.653020976,18.5338787414,33.14818443,36.830526983,33.799876481,31.810658038,22.045567186,29.0142012718,26.1039656767,31.69577323,29.638016702,28.8381047,22.164597057,30.32649031169,16.693840023,22.315245439,26.4134517826,35.541394131,36.2073598362,30.207378569,28.894092498,20.1001963809,29.3256092448,16.829093092,20.121034771,26.9057370725,32.9060124532,18.778123306,34.1383513896,29.242611446,21.316558513,29.9497195322,24.889408157,39.38880393798,31.160534388,39.085455335,15.891140029,14.552733371,46.7462270217,32.805300533,23.616424937,16.80491031,18.034495314,36.7449402368,35.297223326,22.700939135,31.39404362,21.096574911,19.433394526,31.3173947836,25.905013061,28.34003495,18.179491648,30.537652561,17.09551979446,17.6390046208,34.0375110178
33.709433951,49.826065457,36.424615534,44.707774307,26.563263957,28.945025019,31.337963269,26.020407055,23.806940847,28.2401109369,25.9533511731,30.9229327962,45.5828434673,29.0893892193,30.884225361,26.4624375972,24.033154789,25.527075772,38.728506884,36.5645063174,39.284432016,36.21034911,1e+20,29.8600511899,23.2130590324,35.89459614,30.2528084898,54.317943742,34.986832739,24.69349379,25.157644228,21.646091539533,24.0485143335,22.8226779319,24.8479367405,29.57285356574,34.4597735627,25.248670803,30.85307697,23.2911861286,28.112807759,30.456808221,27.578499949,33.070736435,28.1464443018,23.676983756,27.489365534,47.054415375,25.454060288,31.029491542,27.9823762508,27.4447929846,27.105130136,53.282666788,24.358950797,26.09490917,30.47938255289,33.79389316,25.147220586,25.6245797398,27.077546927,28.4923884038,27.493643717,25.837565586,26.0451105963,36.8670709172,29.935045133,29.033135268,25.7767613705,23.6875784912,34.698634488,25.7953696586,34.023218486,26.803706574,23.2927881436,29.936302021,24.38369801298,23.427721136,26.525107753,36.363190839,34.995692336,42.6036227109,21.965249047,30.397064518,32.144350268,33.441055176,30.6225350888,24.107375205,34.765902549,30.133250808,38.463462195,30.360931658,21.6367772698,47.71843109,26.761451283,27.043371587,26.5217528855,27.78226620762,28.5446846672,24.8221911694
46.2665501876,48.5748022799,51.8207325834,48.9223597124,22.2875561061,31.7063815295,35.7523722551,29.6014343337,27.5452980219,24.7565738059,30.2525205043,36.3318197225,47.6856019571,21.2243529579,40.3088841649,20.7461594592,25.4008659242,25.832340607,39.9499977766,48.1932434448,44.4086156744,40.6036042232,29.8600511899,1e+20,20.3426304373,38.0741609178,29.7913764093,59.6140880302,39.641393326,22.6878659762,26.8335883655,24.878067875033,21.2840841882,25.3521142926,25.0334713123,26.83769867714,34.6745520772,22.3055414861,27.8466134854,24.477179335,31.2256148357,30.7905160187,28.6404502176,42.7708849885,31.4591622508,21.3349668269,20.3194306145,49.6976558935,21.7893498182,30.8113098758,25.050547085,24.9248355814,23.0549603555,72.6755467413,20.0105833871,22.6821093058,28.23389657649,48.8555531213,23.7010567118,27.5325127108,23.2538655282,23.0410598479,28.8575036618,27.0603703812,28.3907247664,41.4900869679,33.0024432802,29.5976192338,22.5100576699,22.9889968539,41.1705129015,21.3150015102,37.5804733481,24.8293707011,22.7850387993,34.1534643355,26.72751870958,25.0342532305,23.5172319463,44.472556847,31.6306095535,40.4797739484,24.187557636,27.7372776198,41.1542798842,41.9350578093,25.8673665406,26.4603632591,33.604984336,27.6024495433,53.0509353654,34.3922021881,24.3217490681,69.2724474932,25.1482997182,38.2184932342,19.5911426234,27.12875562628,31.9618969615,26.3992900021
25.8562565176,47.6837878292,27.3935187306,35.1595751886,16.9398172168,26.4578774494,24.7292067626,17.5257372574,19.8263497733,18.0192069981,21.3383943575,23.1030282518,43.2096693745,22.6899454239,23.9279893526,22.408409479,22.3910473126,23.023871897,33.1635237496,30.777601891,38.5609147026,24.0817500196,23.2130590324,20.3426304373,1e+20,30.6487941274,18.8649119992,46.2140343156,28.7822045554,16.5854090206,21.5884200876,21.348416817133,15.3875464442,18.1324968895,20.1798622261,22.75777589176,32.0620669477,15.1841854396,30.6723978166,18.3592798984,22.6177711606,28.3877706304,21.3749508739,25.3862865396,22.4272355318,19.0862857556,19.268145198,39.7498393804,13.9825688006,22.6378249136,19.2436936651,19.2244015471,19.3640610212,53.1063744126,15.2484415106,13.5481030754,27.76886307202,27.8690442676,14.5058044046,21.1090309588,18.9102327696,19.8378934752,20.0482233226,21.0580568934,20.3815968335,34.2904152753,24.6344899546,17.4332330216,13.0406977382,15.3502704752,28.6150626346,19.2638935752,32.3598125686,18.8196710596,16.2711708906,27.5105174236,25.24576406858,20.1945125712,21.8465503356,29.9749123056,20.2895760786,38.5807761297,20.5215763436,23.2190574616,24.5922041596,28.7491924486,28.0137617864,22.8091986108,26.5149284586,19.2779107596,32.5677151866,25.6244746776,18.130589743,46.2074055626,22.7251862066,25.7777817784,19.4583964442,20.97539896106,21.2325311552,25.1688589812
32.347680106,38.798588377,30.3525845,27.323111206,30.910391103,33.415195407,34.814637993,30.197628601,31.684808001,32.0685405499,29.7429438861,28.5968409152,27.1803282999,36.4202336913,32.918123912,34.6489647772,34.704659098,34.7716851806,26.063442808,32.8541010884,21.744406372,28.723382232,35.89459614,38.0741609178,30.6487941274,1e+20,27.0138053088,28.230822831,28.7994520191,32.906202765,37.131111432,35.324614979533,33.2577494904,33.6862913439,35.6444042125,28.75355253174,26.1706933811,33.626172794,29.550613301,30.2029685326,32.1125049,32.981526337,31.240762868,31.655382156,25.9772004134,31.10329813,36.124060184,33.792820482,34.089500533,31.350401096,32.1625980508,30.4659938033,33.753965535,32.10215006,30.229191057,30.391072138,30.58581619771,29.647194622,29.160184275,29.8116200632,36.541715355,34.5326298656,39.238951351,33.769185656,28.3586531172,19.2059317222,28.794449313,25.217970468,31.8668701555,33.1110334078,30.023531252,34.4055596486,34.68590338,31.427121697,30.8710100984,32.924061713,35.67161524572,34.530341969,37.808447371,29.138183298,24.166284962,26.8787493953,34.877133067,34.442486872,30.992155508,34.88593235,29.9619332038,36.653819533,27.853282804,22.854065503,36.229224332,30.153843422,32.7196046534,32.189081038,36.9742758,30.015786737,32.6865335,26.94743932608,30.8327453222,35.7065476442
24.2239089658,52.5494359196,29.1353565158,24.5992572508,22.2223430516,28.5782307098,23.4493930468,15.8900710098,27.1661208863,15.1357462099,16.6796135704,21.578740322,44.2672593997,30.8500839101,21.8986673478,23.2671599748,26.6093560736,28.4290355364,27.6664694458,25.9180595352,44.0655575928,21.4055117818,30.2528084898,29.7913764093,18.8649119992,27.0138053088,1e+20,39.4894921738,33.1658424019,24.1197410086,31.67495315,26.645825582467,17.9613018348,21.4269420692,29.0159387383,18.44610474166,34.8668350961,19.8494811688,28.7311098058,24.623344755,18.3081374708,34.5089442262,25.1335386403,25.6416135958,20.6482666126,27.3876618086,21.4238971078,31.4129534332,19.0749225124,22.7271121928,15.8263786337,15.8064128209,15.6992227574,55.5228678888,18.223716768,19.2442198302,24.66149869289,29.1331949538,13.5538576158,26.3087405624,29.1995566178,23.57744237,22.8570521338,29.4614499714,24.466809831,34.7818353556,25.3754259278,13.5513829588,15.1539619737,18.7165529522,27.7776347428,29.4302434008,35.1767834328,27.2469639188,24.874631824,30.9572473428,31.55887391978,26.5923922736,27.6139977118,28.2267229648,14.6453206528,42.5691607715,25.5683447884,25.4071122018,24.8003797348,23.2300242508,27.4041353102,27.937518818,18.5281247888,17.1770782438,31.1240603648,26.6961711068,25.3216365176,48.9643279088,24.2928051638,28.5192123652,23.430551312,19.91736237188,25.1625943102,31.00145832
32.122892703,49.818284542,32.367491723,24.656303139,41.681185327,47.01707426,37.130120791,40.308228254,45.769495446,46.8857599821,43.8377937159,37.6802926602,27.2610664849,58.6258839893,35.979977276,56.7960722142,52.616935806,58.4760591126,21.631504243,31.4236638884,35.160029302,36.916735591,54.317943742,59.6140880302,46.2140343156,28.230822831,39.4894921738,1e+20,44.0082259501,46.412377433,49.390215932,53.916391691467,45.7394867364,45.9441053929001,55.6913313825,38.25308615826,33.7824696321,51.002652991,29.903591411,42.3844824347,39.881487592,34.377347666,44.7010477255,33.603314353,40.2550513834,53.271524714,50.172792792,27.375081987,48.892239426,46.337283076,44.8407934583,47.4550429547,45.031596839,35.766370576,45.396941362,44.822578916,42.73783916469,33.952057455,39.520629786,46.3972569746,55.769142127,49.6212956142,46.963925685,50.010033113,42.3264522498,24.0423149108,39.397553457,41.366340373,46.4144872795,44.4451755462,29.074843071,53.5180354886,33.106793021,47.39431511,53.3941519978,47.066345406,61.21414332128,50.07606862,58.317436844,28.977032797,36.200121191,37.0379078527,51.262088041,44.243437381,33.562206482,34.671931164,35.4460281168,54.062451298,39.773478756,33.907675487,29.576318755,41.618330703,50.4079928266,30.774688077,42.152755339,35.604628134,50.9967559275,35.81058798192,41.7916002284,53.7737930958
33.5099201691,43.3781985966,28.8921395311,39.7127946081,32.2389033887,32.9414384191,36.3871345591,30.2864702672,29.1139911378,33.8729759608,29.4371099411,30.5075052183,41.8087067158,40.6094377489,34.6268140671,41.3451655798,34.2489792178,37.8270917528,38.3219133741,36.3043835601,33.9156045991,30.1580138091,34.986832739,39.641393326,28.7822045554,28.7994520191,33.1658424019,44.0082259501,1e+20,34.0542388554,33.8904028438,38.645100006767,35.0205703863,31.1585395403,39.6586853809,37.94827713036,36.8644719856,37.5254700268,38.4977791821,31.5015992139,33.4006200611,35.6150145258,31.9015149016,30.6580717351,27.1681781352,32.8938735014,38.5015467107,47.7413103701,31.3012607539,34.4968223251,35.2957114179,30.7036075719,37.7628417009,35.7350721561,31.6674726882,28.1233913384,37.21418794781,30.4704347931,28.4116543571,29.5897736387,39.3945814765,36.6821333326,39.5337050978,33.8636936326,29.960810087,34.5428823448,30.4557026641,24.8155029311,30.7845130266,36.3249507057,32.8740165191,32.8401245343,39.8096139981,31.2268230792,28.4420493945,34.0711803132,42.69936410318,33.4126775533,42.5973267455,30.9539701191,27.9723224791,36.9518235002,37.6372332629,39.2654584771,31.3512995431,37.6830066671,42.1787783217,33.8156452965,31.6441252551,34.1249731361,37.0092487281,29.4950279301,32.4073447397,32.3030608111,37.7272180901,32.4955006281,36.2040707479,28.36621210936,29.5952499787,34.9646184894
29.610138604,48.243486304,28.997009372,34.347130189,17.309297238,25.767977874,25.610947094,21.754648745,20.0861707785,20.9397726889,21.6075341739,23.9129108912,40.6770632159,21.7394726263,24.905402436,23.7781624212,16.293555489,21.7233724774,30.600460102,30.0990378574,41.411870849,25.826374716,24.69349379,22.6878659762,16.5854090206,32.906202765,24.1197410086,46.412377433,34.0542388554,1e+20,22.096886792,17.912330353533,20.1810015016,17.8077935839,22.7837626035,22.78350259514,34.215380355,20.261703473,31.104809571,18.4469718147,22.579416691,30.215168928,19.597459647,27.657812032,24.2975107654,22.67094592,23.509795419,38.964056642,15.750380672,23.703053181,22.175805082,19.8359279364,22.622963518,48.031907873,17.092011724,14.744161551,22.68583199429,29.831398316,17.775528551,17.1488481792,20.866429604,24.873456877,23.959625124,16.586409991,19.2757912489,36.2786527628,21.098534834,23.283514185,18.433676512,20.09845105,29.499411814,23.4202860566,38.282209601,17.697961136,16.2019613278,25.749932897,24.06115027498,16.473899158,25.548439109,28.714509918,26.067772275,39.1279735843,20.279802782,22.231481127,28.373502145,29.702365497,28.2769704786,21.123476404,25.532525157,24.648574819,35.736483858,23.318676923,20.1095836072,42.694218561,21.300910022,24.102221673,18.0360534405,21.02338285246,21.6553941866,22.5946907166
32.120606653,46.052962092,35.04859282,45.496298018,23.393828159,25.818994865,28.639785412,25.652755965,20.324718459,27.8019362459,25.3211378359,28.5298348418,41.7643583369,27.5402639903,29.003350289,33.6682153352,23.326244686,29.4485302756,37.487944558,33.2841418428,38.803125214,30.915765643,25.157644228,26.8335883655,21.5884200876,37.131111432,31.67495315,49.390215932,33.8904028438,22.096886792,1e+20,23.676811378533,27.569323833,19.2347373861,24.7483354095,28.76154414074,35.1346890371,29.068339096,32.77194612,19.451499954,26.407818403,32.233932442,22.292388625,31.993982835,27.6104320934,26.246817243,27.870605229,44.205091142,27.114070625,24.480701554,32.3074055224,28.9977989653,29.678969458,49.423963378,24.071146431,21.890127301,30.45747809651,33.00726372,27.611780964,21.5459540442,29.166738902,28.702114512,26.669065594,21.813416741,24.3014410522,36.4415761182,24.647517743,27.859940447,27.2567975605,26.4324056746,29.763928654,27.224551923,38.220683038,20.118281697,19.7205710564,24.800711256,30.95722769228,20.193832678,34.251870444,31.663552157,33.398904654,38.6815084203,21.600710839,26.903089787,30.277533465,31.971594418,29.6877839688,24.301919891,32.005604058,31.58774422,36.364288509,25.223301672,21.7235330598,43.504388476,27.427542814,30.746255998,23.986865592,24.99313790908,19.9383148264,25.1461664564
33.071195392467,47.076581691533,38.790532025467,45.235906744467,16.586893994533,30.372271652533,30.279956117467,25.222885111533,24.446365622033,22.551877256165,24.413424507433,32.188650460267,41.198308410433,19.509946942833,29.082027454467,22.141755536733,18.290904220066,16.694974590733,40.390000807467,35.043724031867,40.471318458533,36.594643130467,21.646091539533,24.878067875033,21.348416817133,35.324614979533,26.645825582467,53.916391691467,38.645100006767,17.912330353533,23.676811378533,1e+20,18.485149789866,20.395023796433,19.460426451033,29.714529362673,37.455250615933,17.451719761533,30.421612721467,20.802075256101,25.778954111467,31.066002748533,28.606172117033,33.759840950467,27.730398885933,19.084422463066,21.681692998533,44.702283120467,17.474407100533,29.908873172467,24.950159845266,23.015527047899,21.874299167533,57.917365321467,18.863504615066,23.010313278533,29.899501983243,37.107692740467,23.491765112533,23.551147104133,18.277691206533,25.245595345801,23.837114973533,22.022013894533,27.949398643667,41.579210092733,28.787028174467,27.180256832467,21.553635162934,18.039166576333,32.193602011467,23.111065453067,33.096499895533,24.184934078467,21.242116182933,32.882397101467,16.148258791513,19.060688098533,17.622728644533,36.179682414467,32.835940224467,40.345020524534,21.461396337533,26.070302755467,34.094950351467,32.245521829467,30.808561450399,20.216838742599,35.742475421533,27.885568524868,37.273291278467,30.178554919467,21.121090103266,53.005569170467,23.982499737533,24.275430073533,20.267703857533,24.656642508613,27.530297669267,20.969831347399
31.1419874984,47.6930881438,33.0729242485,34.8007990063,15.8996986144,28.4475358067,24.5785847418,17.8066112885,24.7854684391,12.4321751047,21.3221533964,25.926234848,45.0984509556,21.1095424477,26.170457417,12.8906833808,20.9127780977,18.8949191882,33.1753277264,32.9759093092,44.3851610673,32.9111493207,24.0485143335,21.2840841882,15.3875464442,33.2577494904,17.9613018348,45.7394867364,35.0205703863,20.1810015016,27.569323833,18.485149789866,1e+20,18.7508060693,20.6918499913,20.70897417774,32.2902702889,11.7363679707,31.9824605853,25.2847824717,21.9355821881,29.6155040379,24.9654455843,30.1965201569,22.6158353361,19.9010566086,13.5373735434,38.2748679679,12.5769977516,26.3419146883,14.7422909023,20.616337585,10.6139030614,60.7983533713,11.6800564724,18.0603168487,24.19521756369,33.6592322769,14.8744342056,22.6258642056,16.9488601224,21.3335891488,20.9917612298,26.189770115,24.3190287786,38.7132046019,29.4461450083,21.0903150074,14.2431369429,12.6083759575,32.2530793184,23.3441551972,35.9290630444,24.6919249997,20.3204833003,32.3446444939,20.37949130948,22.0498844134,17.0392559424,34.1988188415,26.8092710236,37.662196138,18.8711747727,24.3466287806,27.0813729744,28.9389323856,25.7157988744,20.914025895,24.2424905757,20.9103034837,36.3189937097,27.6599585467,17.5168165,56.4951452244,21.5111760437,24.3934539172,15.2247511354,22.08149002168,26.4419764973,24.6100633223
26.6099667189,46.8311562129,28.0246156489,37.8047390079,18.2449987709,26.4033401229,24.4725358139,22.2618942349,20.6232701144,21.7730406115,18.2754850648,20.7495144965,40.1142014578,25.0830809342,22.4184869909,23.7189488254,17.0325997779,22.9806181011,31.5820500169,28.2191981473,37.3014672089,23.4316206069,22.8226779319,25.3521142926,18.1324968895,33.6862913439,21.4269420692,45.9441053929001,31.1585395403,17.8077935839,19.2347373861,20.395023796433,18.7508060693,1e+20,22.6995922044,21.17991871204,30.6952282498,21.1924412109,29.8019497349,16.3134600696,20.1561777509,28.6493056261,18.1062942751,24.3716845049,23.6903723405,21.8955121359,20.0754630405,41.054316772,20.3060518139,20.6398032859,23.1700821413,21.297191812,20.1201850419,47.2197035089,17.7341836549,14.6271364302,25.19901423628,26.6959883719,17.7067352739,17.4300634688,25.4264831729,22.2304289508,20.9176603589,16.196858201,19.8026016428,35.7109081129,19.4097538229,19.5269059609,20.0099880114,18.2812113518,26.8512144889,26.7198420745,34.0558453489,20.5425414839,17.6895693941,20.9148706529,22.50071300818,15.9357748159,26.6542112109,26.3538217599,25.1043702569,39.0098770392,16.2042152549,22.4255083419,26.2127108219,26.5830062469,26.2570367247,22.4280643959,24.9410764699,28.0253923574,32.3990643239,20.9992892089,17.0269257543,42.9057528749,22.1283401479,24.5948232351,18.7817210648,19.09633696036,19.4806648557,21.8447665589
34.2832860075,47.0559571645,37.2593678905,43.3401105135,20.4788916835,31.1872563625,31.4075052335,25.4159637625,27.603382642,24.6078724566,25.7201502574,32.3961613763,45.3188805454,17.0976059299,31.0809278385,21.7906342377,24.1885181075,21.6643076057,40.1310193085,37.1583332911,41.5440101535,36.6775049025,24.8479367405,25.0334713123,20.1798622261,35.6444042125,29.0159387383,55.6913313825,39.6586853809,22.7837626035,24.7483354095,19.460426451033,20.6918499913,22.6995922044,1e+20,35.96582580564,35.08926185,18.2977427495,33.4017280645,22.5528932682,27.9322017215,31.2587118695,28.9279254335,35.3368017585,31.1647243687,21.27228133,24.3636465025,43.2281458475,20.2452899395,31.23475798,27.6691020396,26.4106312992,25.2977768995,63.6671125675,19.3845594955,20.3087365715,35.15818828443,36.2355059105,26.7920063685,25.1675431627,14.6947009815,24.8645378897,22.5082944495,25.6061086885,27.4159498709,42.6937615247,30.4626345055,28.0564218445,24.308179169,20.0068790655,35.4063514895,22.831833536,31.1512814695,25.936617216,21.5024650509,33.5085313495,19.36679373778,22.9495887585,17.9753025865,38.6804049635,35.5806012605,40.6520471213,22.345582247,30.6081352435,34.3651566845,36.7677579175,29.9300438757,21.3540850645,34.1670383425,26.5729971615,40.0504259605,32.4636382315,20.4822360379,56.1615303435,28.4849201865,24.7847599365,23.0798003575,26.91098383866,27.9435954049,26.4700762063
30.62703567926,48.82936729774,31.82103910226,27.13228470726,21.86493289174,29.98917845074,25.87429958626,23.45175006974,22.15167882374,20.58120886224,24.62251599194,28.71515578746,37.96978722716,35.07978729004,31.76853238626,25.24865771394,26.65839581514,31.77262424454,23.94016478226,27.68600685466,35.66889136026,25.16186241426,29.57285356574,26.83769867714,22.75777589176,28.75355253174,18.44610474166,38.25308615826,37.94827713036,22.78350259514,28.76154414074,29.714529362673,20.70897417774,21.17991871204,35.96582580564,1e+20,31.51820547308,26.48425882814,27.98128094126,26.24638756644,24.78661404626,34.24820010774,24.25487502614,29.30733894126,20.79775959914,28.91260647514,22.11296066116,33.91893637174,24.10894009714,26.95041514926,20.05107278374,21.83338235804,17.34734975214,40.68648259626,21.63378962074,23.66886547974,15.60024191983,33.34666206926,15.54983036074,24.60057865894,36.12933460114,26.71652206484,31.44416573974,25.4577520052,23.90529779846,30.18904347746,23.68665113526,23.45925612026,20.04018699802,22.86916352554,30.92946820826,32.91612068744,39.67409592826,25.64454159826,25.45483721074,28.31717720926,35.75715054772,26.06304865292,34.04969421214,24.74003454926,21.55771581826,36.89285280004,26.33553165274,19.98297265826,29.74452644026,25.74241319026,22.99402330352,32.36914292134,25.79590556274,24.60658635106,35.50281802326,25.46451271026,26.03539232634,40.25813976426,24.67622660914,33.93505715574,16.32080279704,20.88183177222,26.07008932086,28.95224306674
39.0907674847,34.3887759694,38.1634433989,37.4108606747,33.0055183825,34.4889037185,37.9511284481,33.8363650577,31.8027945938,33.6253166781,33.8390126539,33.5794973627,33.8565407198,37.3567120372,38.6783567935,37.2950711899,36.1409817701,37.8746231806,26.0253877073,42.1968733323,35.3932867715,34.5825085223,34.4597735627,34.6745520772,32.0620669477,26.1706933811,34.8668350961,33.7824696321,36.8644719856,34.215380355,35.1346890371,37.455250615933,32.2902702889,30.6952282498,35.08926185,31.51820547308,1e+20,34.4242376705,35.2426726251,32.4685420323,35.3915348087,31.8011603775,33.133674316,36.3987229213,30.5157690673,31.2051573093,35.190626917,36.6639458537,35.4235181123,40.3380071805,36.5014765188,34.5295984167,34.8391335711,48.0603209645,33.4405466836,32.4153378631,29.47591038792,37.5473836251,30.1393557093,33.9364588607,37.8088464355,36.7567451159,39.7464482789,34.2280663569,34.4766620245,28.5150491763,34.0916073685,35.2807346643,32.6838320439,36.4639907239,39.8712196669,35.0694327266,37.0827839231,32.5239129913,32.3532239333,38.7432186207,40.70485212196,34.6624749421,35.8855748775,38.4284338009,37.1508791111,29.9837463324,34.9695824005,38.0332408843,36.6448214353,41.0260062115,26.6828226839,35.5903728227,36.6577672417,28.4999621268,42.6573460813,35.2129963689,32.5585694363,50.6151578515,37.8270078955,33.2109131803,32.153057213,31.70993563818,33.6480754169,34.9307304733
29.610785168,50.641897901,33.423667227,39.023112592,15.577635351,31.486204603,26.663386601,19.955797772,27.523308981,15.4764327523,24.7171267239,27.3591221592,44.2950131999,17.8466630063,25.849955096,13.7267350392,20.751178272,19.1660769898,33.55262658,32.2449726414,44.384429418,33.734945542,25.248670803,22.3055414861,15.1841854396,33.626172794,19.8494811688,51.002652991,37.5254700268,20.261703473,29.068339096,17.451719761533,11.7363679707,21.1924412109,18.2977427495,26.48425882814,34.4242376705,1e+20,34.473187302,22.9527868717,23.364595044,30.378358845,29.094317475,30.091136373,24.6811765334,17.265375011,14.662065053,38.863876804,12.644107539,27.250562225,18.4932653317,21.9485357433,13.833323489,63.495899057,13.781924254,19.994727391,31.23711800811,33.37717954,17.946262223,25.0838780442,16.482610054,21.8170164366,19.521462529,26.418387176,27.3733964068,39.8028841638,31.062588253,23.936654168,14.5129360665,13.5501814888,33.021677378,22.22304654,33.331105428,25.825528869,19.4737804284,37.004371191,17.85834202328,21.007118507,13.835641253,33.473245605,27.017170528,42.1128452713,19.717002744,25.903073836,28.16400323,28.609224413,28.0549956158,22.698811378,29.116994641,20.858992296,35.887179828,29.33650917,19.6943577584,57.023344414,21.461637755,23.841452985,17.027844606,22.49230013292,29.7921083946,23.1839579686
19.907550802,50.569102067,23.911018681,16.490418199,31.7455487,28.998466885,18.789863463,26.465933088,25.908277915,29.8912347861,21.5835860939,22.6694519874,37.8837749889,34.1889752083,23.254389623,32.2119278672,30.684097602,31.6951138882,19.758455433,16.4199732808,33.85334972,23.595133581,30.85307697,27.8466134854,30.6723978166,29.550613301,28.7311098058,29.903591411,38.4977791821,31.104809571,32.77194612,30.421612721467,31.9824605853,29.8019497349,33.4017280645,27.98128094126,35.2426726251,34.473187302,1e+20,33.1178129967,20.307458528,16.349769421,27.5480663445,18.822842147,30.2260327344,29.433009179,30.735631796,25.849987261,31.770892434,34.881603104,30.3359354823,22.5355257167,32.1165525,24.556422292,32.442739404,27.520452118,28.54361951129,22.297248971,24.540602675,27.4179795336,33.737887369,36.3658752042,29.863460524,29.525848842,25.4336343392,30.7683840292,24.629936397,31.118259631,29.8425578415,32.2121072272,19.516631969,34.3069318526,19.123219461,25.44539198,26.9589120716,35.870442702,35.02504216598,33.792116698,34.28554109,16.138419805,25.844536313,42.3907138637,32.238343956,16.611526909,20.023400483,17.232073174,31.8892683218,35.406750231,34.841257808,33.612384146,15.566740031,22.551781358,29.9675426946,24.230808778,19.608792668,20.279061038,24.471605439,18.91824357008,27.152038988,31.7445866976
27.4599263627,44.8506413197,30.0983914287,35.1000916357,16.8239242516,26.3029613756,27.0035381307,23.4399569197,20.7606161251,24.8833179679,22.2311372459,22.7720100009,41.1432693796,23.9098866249,25.3420254057,28.2651995529,19.0117382377,24.9846307515,34.2378487727,29.5743380831,38.7341840107,24.6013269647,23.2911861286,24.477179335,18.3592798984,30.2029685326,24.623344755,42.3844824347,31.5015992139,18.4469718147,19.451499954,20.802075256101,25.2847824717,16.3134600696,22.5528932682,26.24638756644,32.4685420323,22.9527868717,33.1178129967,1e+20,26.2438956117,30.9217717993,21.4249080184,27.7162071507,27.3062753677,22.3630532407,25.1161982966,38.4829784483,21.1878889137,21.8107317457,26.7237052141,24.3252625466,26.8502180717,44.0648534367,18.5621327006,16.4414882836,24.26456497912,28.3954076897,23.4629694597,19.6940678082,24.0154016087,23.2452516135,24.0204788876,20.1385639497,19.5342336605,35.7185925785,21.8460586777,21.1559716637,21.0542449287,21.3305074348,27.1928425717,24.2103722683,37.1377303517,19.9107658684,18.5820669317,22.2583988514,23.74184795068,16.6783115636,28.9539636037,30.7734835567,26.2161617307,37.2587859916,19.2437422017,24.6146737087,26.2597374207,28.8977174477,27.0338863192,24.5434390356,26.0710371677,25.9830013039,32.7294465857,23.6425935987,19.9719063389,41.4533792947,24.5598998897,26.5801401296,21.5434982872,23.08659057962,20.9947892646,21.2435631573
15.109359429,52.933064046,16.112967334,23.885667909,25.490438507,24.999586192,17.303256994,15.302522006,20.980067054,21.6148996291,18.5328132019,13.3891301914,39.1900277949,30.1484204753,14.972150522,27.2904856712,26.442753663,28.3748418324,26.430008552,13.4118311588,40.118692192,20.979926242,28.112807759,31.2256148357,22.6177711606,32.1125049,18.3081374708,39.881487592,33.4006200611,22.579416691,26.407818403,25.778954111467,21.9355821881,20.1561777509,27.9322017215,24.78661404626,35.3915348087,23.364595044,20.307458528,26.2438956117,1e+20,20.960212991,24.1766165115,13.981632004,20.8616946852,26.362432191,24.586589002,32.983785216,22.300030987,23.100724396,21.5013545193,17.3386861437,21.440605688,43.155961319,21.803794301,19.47174432,30.20301331469,17.624333852,19.504548968,21.0076901206,27.764459419,27.9805573542,20.907721179,24.657972011,19.6917315192,36.8290476882,19.823882182,20.6328514,20.3648072605,22.6471323812,16.785574992,29.6086804226,25.886472492,20.343817751,22.7014074856,27.483838075,29.88666436498,22.791113649,29.1209774,16.153608585,19.142268652,45.9145071997,25.806249925,19.115892055,14.445781676,14.641773859,30.9857815868,28.201446903,23.070473531,27.316785558,18.124320576,19.089844404,22.9407405246,32.838063768,19.305877358,17.414937409,23.446117628,16.42573799816,21.021169927,30.4807945298
19.999770734,47.340847792,18.531902393,25.148232105,29.908791571,32.315769591,21.4037287,23.708566686,29.2879747325,32.2528930499,20.4616569831,19.0415415972,37.4785859739,31.2476524093,22.581348233,34.7978294758,28.758016116,27.7837014586,25.675130188,20.4231481888,34.898685985,26.841157486,30.456808221,30.7905160187,28.3877706304,32.981526337,34.5089442262,34.377347666,35.6150145258,30.215168928,32.233932442,31.066002748533,29.6155040379,28.6493056261,31.2587118695,34.24820010774,31.8011603775,30.378358845,16.349769421,30.9217717993,20.960212991,1e+20,27.2683809565,18.440423128,27.3270533204,28.841050202,31.748140142,35.01954142,29.916735918,36.814436232,33.0587584067,24.2398415463,34.422703871,31.481476453,28.107920264,28.042461948,36.56555421771,20.166981378,26.488261452,27.7244525424,30.163458379,36.8024564026,28.140420378,28.055431952,23.5135240222,37.3777077989,25.105994361,31.943803248,30.5062052525,29.2607676428,21.073588588,29.9057168186,15.866334205,26.687828618,27.3796624476,37.173796279,29.56105371298,31.574109164,28.290771471,18.833751645,28.177534658,40.2572825473,30.966034119,25.086737793,20.343799898,23.860937267,36.8128689482,32.475479664,35.428653724,35.408019599,16.86509854,22.527571445,27.0162005514,27.072129052,22.736198801,15.92226492,31.7993944995,18.09176797808,27.4238478714,32.4245425652
25.7056217145,50.1835743855,24.6895427625,34.9396472825,25.1676957585,24.397924786,22.9781039755,22.651682627,22.1677395305,23.225032331,22.0172795651,21.1055553241,41.4130329494,31.3454340863,25.0083184125,31.0731121752,24.074248442,33.327948789,29.1647625895,26.5742946879,34.5041708885,21.3581315785,27.578499949,28.6404502176,21.3749508739,31.240762868,25.1335386403,44.7010477255,31.9015149016,19.597459647,22.292388625,28.606172117033,24.9654455843,18.1062942751,28.9279254335,24.25487502614,33.133674316,29.094317475,27.5480663445,21.4249080184,24.1766165115,27.2683809565,1e+20,22.9129773925,24.3604870104,29.84888976,25.699801327,36.3274661385,28.5745322235,23.6057098775,23.3038097913,24.9088571131,23.209748848,41.1841253785,26.8480112825,22.3006132765,25.10275575761,23.9247893645,21.0895711405,19.4509184626,32.4572562365,24.764900002,25.9282118635,19.280767925,20.3721049284,36.5554644583,18.3014557755,24.1589435595,23.964140444,24.1094979117,24.0459643235,29.2252661221,33.5211628835,19.411185154,20.9993203481,18.966127543,34.09457544928,22.9863767865,33.2602886195,25.9488378335,21.2824468445,39.6228879773,24.293377014,25.0768930565,22.6125732765,26.2005492615,28.1359267018,30.1955815055,23.6739966625,28.1864602765,30.0000786285,17.7708935595,22.9402207451,36.4337520565,25.2219282865,25.2391861825,22.2176366525,20.06537012946,17.3469477083,29.5632770126
12.686477644,54.245782715,10.601742867,20.311811128,28.351542774,26.732746038,16.797053832,17.228985832,23.1804168405,28.8982430051,19.2359209829,13.8910429144,38.4803033999,37.4473606413,13.073862938,35.9829519652,30.066761723,33.1963438356,22.239007975,12.9855120998,39.588779582,15.653020976,33.070736435,42.7708849885,25.3862865396,31.655382156,25.6416135958,33.603314353,30.6580717351,27.657812032,31.993982835,33.759840950467,30.1965201569,24.3716845049,35.3368017585,29.30733894126,36.3987229213,30.091136373,18.822842147,27.7162071507,13.981632004,18.440423128,22.9129773925,1e+20,19.5007448444,31.593970489,36.064001482,32.253781854,29.698725054,31.931539704,28.6738135983,22.0380163887,30.793861186,31.63444249,28.413106304,22.899453478,35.10737471969,10.614345829,22.958444918,25.4833512926,34.421275982,32.8217699452,24.401661155,28.241210179,18.5412615372,35.9408624412,18.001108018,24.604659505,25.8549632935,29.7019883032,16.244369863,33.4432099316,23.388943238,21.347454419,28.1929339166,28.830796308,35.64079420298,29.498717687,34.145392692,13.228073375,22.303731633,45.4654195487,32.871484375,21.462877004,11.427710534,15.306481872,39.2455609538,36.063814611,27.352799197,33.350159433,15.223771706,17.90143691,28.4543568076,23.697826005,22.37976006,14.303438957,31.634433129,15.21344853608,20.486659572,31.6478907868
18.8740288354,46.0303830454,20.2987390134,30.4875150444,22.9700157914,25.8680633724,22.1829456684,20.7998639574,22.0461577619,23.2908593813,21.2951488615,21.3014753676,37.3414400769,30.1593290669,23.4199198384,28.9687468016,25.9357754164,27.3727119242,26.8623668174,20.0211509992,32.4279243954,18.5338787414,28.1464443018,31.4591622508,22.4272355318,25.9772004134,20.6482666126,40.2550513834,27.1681781352,24.2975107654,27.6104320934,27.730398885933,22.6158353361,23.6903723405,31.1647243687,20.79775959914,30.5157690673,24.6811765334,30.2260327344,27.3062753677,20.8616946852,27.3270533204,24.3604870104,19.5007448444,1e+20,24.5549017014,28.3503955614,36.677931167,24.2206867454,24.8757540514,24.2112164276,19.2347497857,22.4874683774,35.3993201914,22.0630026004,23.3190982064,26.87181392411,19.6830596384,22.1443039964,24.0086026402,29.4724055664,28.1341219644,29.2957252054,24.9942773274,23.2152156464,30.9316594232,21.3109193704,18.2870000284,22.6568214909,23.3126176732,21.5895369694,29.105566184,34.3082415354,22.0865450034,22.7935085856,26.9105148794,32.93382518938,25.6771967096,30.1083451464,21.1249644944,18.7096395564,35.4820722429,27.3524513254,24.9420943964,19.7361844114,20.2365753754,31.0601756646,26.9954555314,23.1005309104,24.2222767774,22.9136003344,21.1904881394,25.3874945628,33.2798008324,23.0923860604,23.6208029024,23.2555710434,18.90124266386,22.836543099,25.9584855476
30.665393736,46.55365289,34.523290783,40.207431108,16.28255632,32.215593383,29.424963627,24.852926001,27.488380551,25.9260962969,28.3018536189,29.6553317982,40.0278576209,19.6422944644,30.573145246,21.7184614022,20.939315872,19.0469134874,34.169899296,32.6834899214,40.600361156,33.14818443,23.676983756,21.3349668269,19.0862857556,31.10329813,27.3876618086,53.271524714,32.8938735014,22.67094592,26.246817243,19.084422463066,19.9010566086,21.8955121359,21.27228133,28.91260647514,31.2051573093,17.265375011,29.433009179,22.3630532407,26.362432191,28.841050202,29.84888976,31.593970489,24.5549017014,1e+20,21.053732824,43.737145361,17.609585544,32.336061764,26.7984462182,24.3979714373,22.657213513,55.359562309,17.081904372,20.82660618,32.67380081524,33.454984555,20.26486493,25.3638357476,18.259909983,22.8817959906,23.423725075,24.017325903,27.8033314202,37.2073622902,30.800327738,26.17251935,18.4784832715,16.5054156158,32.355562905,20.8673141004,30.258670634,27.887357824,20.6320092704,33.753397727,20.49640596172,23.756659386,20.165579708,33.655638664,29.585707965,39.8108343783,21.308344449,28.799122139,32.703236278,33.133843513,28.2942592952,26.608724992,33.519158806,24.581164233,35.870311807,30.563460205,20.1359045028,51.138123401,23.260597014,24.180099189,23.366415216,23.72041390108,29.8214373116,20.1076052048
39.083783713,52.993566494,41.68856497,36.795800661,20.304775559,31.067797847,30.708019606,21.133215186,24.9132111855,15.8469747869,25.1000217616,31.3255296968,52.4162510829,21.5798597253,30.673395621,15.1093205456,22.771035016,21.5621691076,35.568963472,37.1850008476,48.87652833,36.830526983,27.489365534,20.3194306145,19.268145198,36.124060184,21.4238971078,50.172792792,38.5015467107,23.509795419,27.870605229,21.681692998533,13.5373735434,20.0754630405,24.3636465025,22.11296066116,35.190626917,14.662065053,30.735631796,25.1161982966,24.586589002,31.748140142,25.699801327,36.064001482,28.3503955614,21.053732824,1e+20,38.457305607,13.900278713,27.906279571,16.8535687207,21.1810925773,12.460973834,72.343307218,17.172810768,22.265015928,26.59345820771,42.611852156,16.748938401,23.0696781882,21.133444584,18.1459979995,22.432028375,26.151235108,27.3331930752,41.9708579002,30.500222218,23.646543387,16.1569044835,16.8503204238,39.396488844,23.266078208,38.003593166,24.498975573,21.6683781484,30.881774643,21.5550343822,24.126978406,19.0022264,39.667106223,29.288927574,41.7765896223,21.153379663,24.071260417,32.978831573,35.060862536,25.7764552884,25.174890408,25.762863366,23.932075323,47.087829744,31.728606163,21.0852894744,67.28174853,23.979404711,33.378884037,17.500497765,23.90696049208,27.4666937424,26.9157756494
29.66801465,53.774493576,33.297686523,19.578914505,37.979995358,35.543406172,28.677201257,35.151704856,42.3828094385,34.8818926764,37.0482170239,34.2995182102,39.0473086039,47.4234770976,30.026777359,44.2145995432,44.170258313,48.5818461034,17.618429273,29.2085541274,47.382853787,33.799876481,47.054415375,49.6976558935,39.7498393804,33.792820482,31.4129534332,27.375081987,47.7413103701,38.964056642,44.205091142,44.702283120467,38.2748679679,41.054316772,43.2281458475,33.91893637174,36.6639458537,38.863876804,25.849987261,38.4829784483,32.983785216,35.01954142,36.3274661385,32.253781854,36.677931167,43.737145361,38.457305607,1e+20,42.366989842,35.388935969,35.4368150913,38.2998179637,32.38705025,43.667235151,39.980026091,37.883002221,35.10294886129,33.054300504,38.620842709,41.4061314646,44.613048169,39.35550802,32.69893079,45.973482234,36.3848400022,36.1641763388,35.309100013,39.550478499,39.0319420835,35.548221199,27.300107609,46.9794851396,30.526807971,38.599242661,45.1194903216,41.780514139,51.74163387358,42.601221418,47.667395151,29.258001408,33.471677948,42.4444167283,41.041377401,29.430952609,30.35118764,28.773296624,28.6260095016,47.124840045,35.348869514,27.758902882,24.874582103,35.288771166,43.0146946046,36.570990522,28.832488529,32.17556408,38.5610705975,33.30341869108,36.3713373166,45.7434618928
30.189631805,48.884862133,32.308808227,37.155089651,13.723977884,30.411307552,26.908659744,19.086462342,25.3800794445,15.3074123959,22.2096849799,25.4523222512,45.0857049319,17.3230402293,25.75534746,15.3878868112,16.484107584,18.0508597184,36.687569555,30.5301487904,41.818832727,31.810658038,25.454060288,21.7893498182,13.9825688006,34.089500533,19.0749225124,48.892239426,31.3012607539,15.750380672,27.114070625,17.474407100533,12.5769977516,20.3060518139,20.2452899395,24.10894009714,35.4235181123,12.644107539,31.770892434,21.1878889137,22.300030987,29.916735918,28.5745322235,29.698725054,24.2206867454,17.609585544,13.900278713,42.366989842,1e+20,23.325468678,16.9750423577,19.1891043623,14.637590195,59.734816474,12.146207443,15.658189091,28.16330761411,31.88771395,15.119780421,24.0259554126,16.165375164,18.7646037316,21.603275877,24.040684831,24.5471561929,37.3749836508,27.933195594,19.641684431,10.2706403825,13.7087329208,32.913674699,22.056699441,36.183106463,22.786409159,19.0040675894,32.465169205,19.91146374528,19.006436883,16.459223172,33.592940568,24.548988002,39.9058547543,20.202476226,24.257480229,27.274629211,27.884710662,30.2502611768,22.152494349,26.54412544,22.066723978,36.787788469,29.671426419,21.2253909214,52.22301353,21.730800384,23.40435398,18.3076200365,22.033155702,27.5080553186,21.3914600496
28.003624458,54.668361711,29.382490578,29.637892788,23.650427142,27.671131584,26.678270996,24.4485493,24.085309023,25.1930676941,27.9786686439,26.0276056792,37.2306644543,32.7371030296,27.160274575,33.4160772272,25.744157293,32.9395966342,33.272290884,25.4361326134,40.35237381,22.045567186,31.029491542,30.8113098758,22.6378249136,31.350401096,22.7271121928,46.337283076,34.4968223251,23.703053181,24.480701554,29.908873172467,26.3419146883,20.6398032859,31.23475798,26.95041514926,40.3380071805,27.250562225,34.881603104,21.8107317457,23.100724396,36.814436232,23.6057098775,31.931539704,24.8757540514,32.336061764,27.906279571,35.388935969,23.325468678,1e+20,25.5269760233,25.9061748367,28.014164457,48.51768061,24.530726052,21.366441156,31.60724488469,29.735572217,23.720184711,25.6746066746,33.014769738,22.4270582682,30.744438932,25.534980786,23.0976894872,32.5090550262,24.400895639,21.084861904,23.2757379545,25.6613034582,25.804118586,30.6298152432,41.077681461,24.569852645,27.6551905534,25.819831526,35.00931975028,24.196466318,36.555264792,25.808443407,21.773784408,44.6010187227,26.427112466,27.444430925,27.630898483,24.782344,29.2294423468,30.968387836,23.581214508,26.362792952,33.580922387,26.073404068,26.7420013946,39.881175868,24.306937388,30.719082359,21.703958021,25.16610926208,23.853317085,31.8091380318
31.1447362593,52.4784563818,33.7177853558,27.7143766238,23.6426259578,28.9449677317,23.1461543303,18.4800924401,26.5553168449,13.3073404586,21.8176665057,24.7897547335,48.1990033912,27.352378377,24.0740393838,16.9112904799,23.4603985629,22.9020032767,31.8614097903,30.3713642127,47.9140852433,29.0142012718,27.9823762508,25.050547085,19.2436936651,32.1625980508,15.8263786337,44.8407934583,35.2957114179,22.175805082,32.3074055224,24.950159845266,14.7422909023,23.1700821413,27.6691020396,20.05107278374,36.5014765188,18.4932653317,30.3359354823,26.7237052141,21.5013545193,33.0587584067,23.3038097913,28.6738135983,24.2112164276,26.7984462182,16.8535687207,35.4368150913,16.9750423577,25.5269760233,1e+20,19.4722708839,13.8267608733,63.8108585813,17.8263935153,19.5093412217,23.91381661292,35.8222718368,15.1082428543,24.3251201444,25.5513180867,19.346656626,21.9046045248,28.2630259592,23.7077599296,37.5956401575,27.6033091068,20.3618123683,14.1957348408,15.9011156951,33.0205922763,27.4246649723,39.8118506883,26.3036797623,24.9298251027,32.2655941808,27.67883011368,26.9466038793,24.3296605087,33.2489953473,22.5037277613,39.8558048067,21.7762580028,25.8708743573,26.6061357848,27.0587003013,28.1699181694,26.8772346597,19.2273901798,22.1252405073,39.4241323988,25.1780410503,21.136697247,56.8372108343,23.5734142502,30.6358133722,19.4249208893,22.60883209772,28.5595636035,31.9773065507
23.8504887867,47.9628375665,24.9812379997,30.1911846637,22.3050986626,27.7408922923,21.8823643027,18.3729697315,27.547086528,18.7427169281,17.354127302,20.5013861209,44.6228117392,25.0306325746,20.1989957897,20.1169587055,21.8084577513,22.9334449867,31.5491952407,23.6547185401,45.2078386883,26.1039656767,27.4447929846,24.9248355814,19.2244015471,30.4659938033,15.8064128209,47.4550429547,30.7036075719,19.8359279364,28.9977989653,23.015527047899,20.616337585,21.297191812,26.4106312992,21.83338235804,34.5295984167,21.9485357433,22.5355257167,24.3252625466,17.3386861437,24.2398415463,24.9088571131,22.0380163887,19.2347497857,24.3979714373,21.1810925773,38.2998179637,19.1891043623,25.9061748367,19.4722708839,1e+20,19.1949644336,56.1384959507,20.8647258755,19.0246304433,24.2888770587,24.9992760867,16.8394328173,21.7194105379,24.6258962833,25.0507700015,20.6120715337,24.2419209303,19.8712207786,35.7221839422,21.9815307887,19.1688903817,18.7372140133,19.6720632145,27.8503032537,27.0452574151,29.9225161697,21.4009664747,18.9021818284,32.5010220417,24.35815377468,23.8673741493,25.5068951773,26.1351264147,20.2833145617,39.2989530046,23.5558124947,20.8683397427,21.3720860037,23.0112150677,31.9118072337,27.2913133106,25.0323893573,22.8025635903,27.4755407957,25.1762488167,21.1427913761,43.6735956417,20.2846300733,22.7434086753,23.8018527468,16.90903650096,23.8098793853,23.9025884073
30.66240322,53.848222118,37.195055559,31.475527788,19.168989539,28.281570251,24.59660005,18.743166948,25.6030677015,12.0918295733,21.2415962479,26.9863748648,48.0536270739,24.8879338743,26.764205587,13.9214754372,20.782657723,22.9887326226,30.502145955,32.6418961024,48.302867181,31.69577323,27.105130136,23.0549603555,19.3640610212,33.753965535,15.6992227574,45.031596839,37.7628417009,22.622963518,29.678969458,21.874299167533,10.6139030614,20.1201850419,25.2977768995,17.34734975214,34.8391335711,13.833323489,32.1165525,26.8502180717,21.440605688,34.422703871,23.209748848,30.793861186,22.4874683774,22.657213513,12.460973834,32.38705025,14.637590195,28.014164457,13.8267608733,19.1949644336,1e+20,63.69837793,15.72222566,22.607806995,22.94608655029,37.139821588,15.032635867,23.9974294132,23.961216849,19.1723862014,21.265138868,28.758106785,22.8030144452,40.1979360042,26.536520321,21.16390195,14.9067303305,14.2848997098,33.179841386,27.8944261834,38.306475463,25.976091216,21.4089661526,31.738361997,23.31453711098,25.489285099,22.786204,34.967320989,25.139601186,40.3342542443,19.042577326,22.620424837,28.846492891,27.336934598,23.6237637298,25.483182719,21.825994541,20.12619464,38.093949766,26.5575439,20.7405555014,59.185569802,21.40799938,28.653130355,14.604693476,22.26756999308,28.6956939884,28.0040737316
30.582424447,55.347442917,28.910898641,38.245057755,49.894662557,42.333734486,39.024959573,48.14470632,44.1815390035,62.1646773981,43.8093652809,38.3314826412,29.9221993389,66.0238021733,43.345880491,73.1658629772,53.453598965,62.9655445752,32.668035072,32.1414690804,24.543815586,29.638016702,53.282666788,72.6755467413,53.1063744126,32.10215006,55.5228678888,35.766370576,35.7350721561,48.031907873,49.423963378,57.917365321467,60.7983533713,47.2197035089,63.6671125675,40.68648259626,48.0603209645,63.495899057,24.556422292,44.0648534367,43.155961319,31.481476453,41.1841253785,31.63444249,35.3993201914,55.359562309,72.343307218,43.667235151,59.734816474,48.51768061,63.8108585813,56.1384959507,63.69837793,1e+20,54.861054396,48.076091676,46.65961892269,29.271644987,50.928309772,45.7273269976,67.38478593,58.2088950512,60.652869198,46.518308004,37.8292973379,30.6601029418,33.825461781,49.31198953,57.8855663685,63.8172472072001,30.402711448,57.5383441846,35.769104676,41.125409163,51.2360604432,43.655470221,68.79526403698,50.199598888,72.527459747,26.662335632,35.677426078,47.7274061087,59.57025747,41.780093405,34.951620303,33.048551364,48.9069089408,60.130589426,44.111105382,49.596527588,29.076515725,34.026034498,56.3141073836,12.295495032,41.653273437,32.663215308,53.0532195135,34.94141679946,36.3409712886,45.2999444778
27.365739143,45.3460622,31.290017682,36.107051077,13.634471155,27.558754531,25.014613908,19.620287528,25.13737182,16.1038785359,20.9992448799,24.9988913458,44.6460664269,18.2837096226,24.447518306,18.4114458902,17.992618247,18.9158625566,33.711215285,29.6892268724,42.243437451,28.8381047,24.358950797,20.0105833871,15.2484415106,30.229191057,18.223716768,45.396941362,31.6674726882,17.092011724,24.071146431,18.863504615066,11.6800564724,17.7341836549,19.3845594955,21.63378962074,33.4405466836,13.781924254,32.442739404,18.5621327006,21.803794301,28.107920264,26.8480112825,28.413106304,22.0630026004,17.081904372,17.172810768,39.980026091,12.146207443,24.530726052,17.8263935153,20.8647258755,15.72222566,54.861054396,1e+20,13.790444867,26.30206402489,31.654937165,14.910398125,19.6052535566,18.883552984,19.2255307886,20.803687284,21.44252075,23.3809631589,35.9210624418,27.010619278,19.059406055,14.3854327735,14.0044378376,28.176104015,20.735477509,35.035447861,23.579507354,20.0285154922,30.100627363,19.90722531528,16.764823313,20.482322021,30.720496813,24.945823644,36.5556447846,19.290619717,23.463906031,26.111265382,27.924389544,27.6297663298,19.615601752,25.690797918,21.826784978,33.391987169,28.624359843,19.9184850268,48.289527398,19.746940797,22.206038329,18.902340273,20.74698417246,27.4444685804,20.7118466192
25.198910533,48.871144828,25.714354206,31.805292749,14.938030263,25.56540731,20.680543476,19.266860305,19.4938944925,18.3197402509,19.3326025332,20.2218656602,42.1486447789,21.9174587683,20.589191995,25.0647092322,19.806945304,22.7829375038,29.740055248,25.2858678904,37.769488226,22.164597057,26.09490917,22.6821093058,13.5481030754,30.391072138,19.2442198302,44.822578916,28.1233913384,14.744161551,21.890127301,23.010313278533,18.0603168487,14.6271364302,20.3087365715,23.66886547974,32.4153378631,19.994727391,27.520452118,16.4414882836,19.47174432,28.042461948,22.3006132765,22.899453478,23.3190982064,20.82660618,22.265015928,37.883002221,15.658189091,21.366441156,19.5093412217,19.0246304433,22.607806995,48.076091676,13.790444867,1e+20,26.20932309771,26.056615631,16.50352719,17.3486634998,19.663928957,19.778534107,21.160325105,17.52579945,19.4768953319,34.5058900428,19.526626677,16.625475725,14.0663145985,17.5886866694,27.757960608,22.0381949756,33.317611302,17.944821464,16.969226972,23.67481335,26.49011067228,17.321902073,26.697785068,27.114596158,21.364887678,37.7556262413,20.357868226,21.16609012,21.508814055,25.138628436,26.9982271312,19.981232242,22.022353361,22.721270878,31.861595613,23.14484412,19.9649051354,43.108802656,22.288824715,22.886187222,18.525669753,19.96996557646,20.996447317,22.0160176216
36.34786784769,45.66720392929,38.74189166169,30.65878506269,25.40119234144,29.39140881971,29.47804451669,26.20099500298,25.45392984542,23.44817465299,25.59031173029,31.57062196489,42.32271135759,35.12739652201,33.73372609169,27.17669795471,28.27442421011,31.12456690531,29.39750996069,32.08467458909,40.63647238869,30.32649031169,30.47938255289,28.23389657649,27.76886307202,30.58581619771,24.66149869289,42.73783916469,37.21418794781,22.68583199429,30.45747809651,29.899501983243,24.19521756369,25.19901423628,35.15818828443,15.60024191983,29.47591038792,31.23711800811,28.54361951129,24.26456497912,30.20301331469,36.56555421771,25.10275575761,35.10737471969,26.87181392411,32.67380081524,26.59345820771,35.10294886129,28.16330761411,31.60724488469,23.91381661292,24.2888770587,22.94608655029,46.65961892269,26.30206402489,26.20932309771,1e+20,39.15533935569,21.17029811729,25.29449770569,33.99366643751,29.99127972129,32.46787573989,27.13449167649,26.58636047998,35.86359138189,26.87413074469,30.77960727569,25.63528168899,26.12491565991,35.62765313669,33.31267541811,42.29702029051,27.47217953838,24.09829521269,31.12674917229,36.82409996549,28.25678210589,34.21533920811,34.08288806569,29.07299603269,35.08364028101,25.98725034069,25.48389144369,34.03182737369,32.40976948469,24.77750466169,31.73971848611,26.99921014489,28.42078013629,39.87638721169,28.62065817069,26.70377287891,49.56070207269,29.15217765611,32.00194353671,20.83480093589,23.94507538537,27.97161784569,30.41017514813
13.229601736,55.873497579,11.480264247,23.769078523,31.672731388,25.588537756,20.321272704,18.889671974,24.9634884045,33.7782407461,20.9399869479,15.9807811802,37.3659032999,41.1759522433,16.153094242,40.8794661842,31.276380668,37.9552584046,23.527574956,14.5862820692,37.693722663,16.693840023,33.79389316,48.8555531213,27.8690442676,29.647194622,29.1331949538,33.952057455,30.4704347931,29.831398316,33.00726372,37.107692740467,33.6592322769,26.6959883719,36.2355059105,33.34666206926,37.5473836251,33.37717954,22.297248971,28.3954076897,17.624333852,20.166981378,23.9247893645,10.614345829,19.6830596384,33.454984555,42.611852156,33.054300504,31.88771395,29.735572217,35.8222718368,24.9992760867,37.139821588,29.271644987,31.654937165,26.056615631,39.15533935569,1e+20,24.371358498,26.5501682266,37.468151727,37.8251873792,27.418550265,30.813114747,19.4073241932,34.7212124622,19.442519003,26.851644313,30.3067834805,34.1797957942,15.883162441,35.1262840716,25.230475113,24.470365041,29.2540687976,27.928934707,40.44565046898,30.704318933,39.19603641,13.465318021,22.985436001,47.9113425677,36.083657869,27.641128502,15.231031169,18.73665728,40.5554356598,36.836863316,28.980986086,33.890357765,14.289333469,18.858634928,29.8249735836,23.396354317,25.482508902,15.383798277,39.018508994,15.47053806208,21.2811982572,33.3721325768
24.825676171,47.467502537,24.379900612,28.960153981,17.203596163,27.237964137,20.247506795,16.928512828,23.509900437,14.9526195729,20.3513825428,19.7420944912,43.0102399309,24.3364503123,22.126425126,20.6081455962,21.094365002,22.7829172394,28.794550361,25.7487427074,41.560617718,22.315245439,25.147220586,23.7010567118,14.5058044046,29.160184275,13.5538576158,39.520629786,28.4116543571,17.775528551,27.611780964,23.491765112533,14.8744342056,17.7067352739,26.7920063685,15.54983036074,30.1393557093,17.946262223,24.540602675,23.4629694597,19.504548968,26.488261452,21.0895711405,22.958444918,22.1443039964,20.26486493,16.748938401,38.620842709,15.119780421,23.720184711,15.1082428543,16.8394328173,15.032635867,50.928309772,14.910398125,16.50352719,21.17029811729,24.371358498,1e+20,20.6142260372,22.66251017,20.8852700774,22.754115463,22.262018832,20.3526683502,34.9323555772,22.878984046,15.401262724,13.099459006,15.9493574386,25.985366061,23.1245990796,31.602794518,22.241380679,19.3668059406,27.419787482,26.50702298098,21.564294855,25.149370522,26.34065477,16.035026811,40.0488292653,21.280517706,24.39740667,23.02724923,23.534078612,25.5923559052,24.587409155,19.613637111,21.600973264,28.747397011,23.089516839,18.9451461634,44.078979737,21.554770616,22.099590418,21.257064827,16.53304501608,23.3599089796,23.9776083724
27.5098693206,47.9688939826,26.3110808866,35.6365436316,21.9656289482,23.5182344596,25.4733385586,23.1543131772,19.6167841123,23.6654925301,20.4870595301,23.9538433918,42.2912121005,25.2097451369,24.3873746306,28.3442475844,20.3024856196,24.9483156304,31.3587089386,27.8748225102,37.6669306496,26.4134517826,25.6245797398,27.5325127108,21.1090309588,29.8116200632,26.3087405624,46.3972569746,29.5897736387,17.1488481792,21.5459540442,23.551147104133,22.6258642056,17.4300634688,25.1675431627,24.60057865894,33.9364588607,25.0838780442,27.4179795336,19.6940678082,21.0076901206,27.7244525424,19.4509184626,25.4833512926,24.0086026402,25.3638357476,23.0696781882,41.4061314646,24.0259554126,25.6746066746,24.3251201444,21.7194105379,23.9974294132,45.7273269976,19.6052535566,17.3486634998,25.29449770569,26.5501682266,20.6142260372,1e+20,24.8117495096,25.9539966802,22.7722099426,18.1646956792,19.7265122405,36.0737877703,18.3800881406,20.9583675326,22.8844746929,21.9332223022,27.2841696696,26.7504182118,32.1455664236,16.5442088042,17.6101112996,20.3045127666,28.33513513132,19.6890858774,30.4245079186,25.8961623066,24.3980538496,38.9937592861,21.876822938,23.0131906572,23.6606633516,29.0754248116,29.4942613312,22.2376475542,25.5973740952,29.8537612596,33.4347583826,20.2086483916,19.1259004886,41.3503567616,21.1188983342,26.8015943758,20.3905353477,21.13246510366,20.2432642028,24.4478297096
35.606428023,49.676927276,37.591114897,44.386488135,16.868184039,32.773847828,29.966450237,26.007751298,28.8070874015,22.3258257193,27.5848680749,31.9164916728,42.9612976129,14.5617156073,29.891657427,18.8692547312,22.688492742,17.7268006796,39.782531565,35.5518859016,42.882238781,35.541394131,27.077546927,23.2538655282,18.9102327696,36.541715355,29.1995566178,55.769142127,39.3945814765,20.866429604,29.166738902,18.277691206533,16.9488601224,25.4264831729,14.6947009815,36.12933460114,37.8088464355,16.482610054,33.737887369,24.0154016087,27.764459419,30.163458379,32.4572562365,34.421275982,29.4724055664,18.259909983,21.133444584,44.613048169,16.165375164,33.014769738,25.5513180867,24.6258962833,23.961216849,67.38478593,18.883552984,19.663928957,33.99366643751,37.468151727,22.66251017,24.8117495096,1e+20,24.4598861608,21.566041583,26.137373951,29.1424772378,45.0437458628,32.950502338,29.140955792,20.1979670655,17.6422339702,36.935781002,19.4714801824,32.578224932,26.156659335,21.2673323094,37.503360958,18.40357182828,23.91561236,12.784197904,37.363453611,33.540467184,41.8234924213,22.165009262,28.747742783,31.599494979,34.625440953,32.8100468998,19.098144646,35.394670596,27.119030827,39.819875594,34.179209616,20.4643998894,60.110361058,26.124543746,23.164216262,22.41095486,25.82322847892,30.1883845284,24.7195284618
32.9440590282,54.2737919012,37.2071328702,34.7213460972,22.1247994526,32.4614667536,33.3792760422,24.3465066522,27.6275286945,18.9430761573,28.3936443231,32.3191285224,48.0440652213,24.6328777789,33.2114260482,20.482135172,23.5510664014,24.9378387606,36.5836885452,32.1628271866,48.4774428732,36.2073598362,28.4923884038,23.0410598479,19.8378934752,34.5326298656,23.57744237,49.6212956142,36.6821333326,24.873456877,28.702114512,25.245595345801,21.3335891488,22.2304289508,24.8645378897,26.71652206484,36.7567451159,21.8170164366,36.3658752042,23.2452516135,27.9805573542,36.8024564026,24.764900002,32.8217699452,28.1341219644,22.8817959906,18.1459979995,39.35550802,18.7646037316,22.4270582682,19.346656626,25.0507700015,19.1723862014,58.2088950512,19.2255307886,19.778534107,29.99127972129,37.8251873792,20.8852700774,25.9539966802,24.4598861608,1e+20,24.908055051,26.104245781,29.7069184754,39.3418924518,30.5287387302,25.2037410832,19.0607049808,19.1730291782,39.5331105362,24.6671108802,40.8682338962,25.1151710562,26.8652239194,25.7755035582,27.39851600984,24.9150971986,26.3290320638,32.8572180182,28.6619806162,42.4259324455,22.3244209526,30.7477073182,32.9835193562,35.4703013702,29.8701438542,27.1573252878,23.6378498982,25.0518909526,38.5633897352,34.7151275062,23.9964548232,51.7647822722,24.4474501854,35.2132697936,21.5973019391,28.42537317782,28.8483035548,29.3780219208
23.790510205,54.9450462760001,29.314165518,30.822113811,21.605655833,30.64657384,20.975374184,20.693284925,28.2590755795,22.7353076449,23.1916361179,22.2500566892,45.6043558109,24.8762276861,21.0766302,20.9994195578,23.45866052,23.8928123826,31.696191169,27.7002004024,51.778864434,30.207378569,27.493643717,28.8575036618,20.0482233226,39.238951351,22.8570521338,46.963925685,39.5337050978,23.959625124,26.669065594,23.837114973533,20.9917612298,20.9176603589,22.5082944495,31.44416573974,39.7464482789,19.521462529,29.863460524,24.0204788876,20.907721179,28.140420378,25.9282118635,24.401661155,29.2957252054,23.423725075,22.432028375,32.69893079,21.603275877,30.744438932,21.9046045248,20.6120715337,21.265138868,60.652869198,20.803687284,21.160325105,32.46787573989,27.418550265,22.754115463,22.7722099426,21.566041583,24.908055051,1e+20,26.136005545,24.0844808999,46.8789059599,26.735087481,24.486779634,22.5100220925,16.7554664426,28.474070674,27.7882055566,33.482141574,24.47363993,23.6895858422,30.687677435,21.19399637098,24.310558011,24.156116444,28.419464161,28.76582867,47.4442871313,19.841464485,23.252935044,24.396384155,26.415616012,33.4165672078,23.447365664,26.242077759,26.558871783,28.17149939,27.017638253,20.0877854484,52.105348498,21.353777456,27.157553556,25.6031963635,22.53207411746,24.1076718822,26.8145689774
30.540440054,46.455613234,30.128807039,39.884687777,20.364735188,25.381166367,27.067819526,25.136787254,22.2524997235,27.5632531522,23.5703775751,24.3054969466,41.4864542579,26.9842275737,26.902933992,31.1163365492,17.85596437,22.058595495,34.007065721,30.3488782434,36.629046326,28.894092498,25.837565586,27.0603703812,21.0580568934,33.769185656,29.4614499714,50.010033113,33.8636936326,16.586409991,21.813416741,22.022013894533,26.189770115,16.196858201,25.6061086885,25.4577520052,34.2280663569,26.418387176,29.525848842,20.1385639497,24.657972011,28.055431952,19.280767925,28.241210179,24.9942773274,24.017325903,26.151235108,45.973482234,24.040684831,25.534980786,28.2630259592,24.2419209303,28.758106785,46.518308004,21.44252075,17.52579945,27.13449167649,30.813114747,22.262018832,18.1646956792,26.137373951,26.104245781,26.136005545,1e+20,20.8769211568,35.0221427418,20.389168793,23.777049089,24.0093333145,23.697007057,30.880672809,24.4056794556,35.912119285,20.265115524,19.4371583846,22.553350374,28.19396173642,18.452036661,31.963765318,29.240718054,28.943868432,38.8073320523,20.880658253,26.359443252,29.644530285,31.429085387,31.7924591816,23.268562129,28.826350064,32.931417535,35.304886702,22.186079963,20.1016968798,40.161850612,24.250315605,26.737282755,22.929905532,22.80607889992,21.7286366518,22.5438883424
18.0457485742,48.4608881871,17.7030481672,31.2649825568,23.1438812612,21.2501939188,21.3962681639,19.8843336178,19.5151721317,21.5042852979,18.4111618698,15.4282498724,32.7410323867,31.6175047641,19.9825244226,29.7366802751,22.7010135239,28.5043872565,28.2488181539,21.2749169045,31.7601697399,20.1001963809,26.0451105963,28.3907247664,20.3815968335,28.3586531172,24.466809831,42.3264522498,29.960810087,19.2757912489,24.3014410522,27.949398643667,24.3190287786,19.8026016428,27.4159498709,23.90529779846,34.4766620245,27.3733964068,25.4336343392,19.5342336605,19.6917315192,23.5135240222,20.3721049284,18.5412615372,23.2152156464,27.8033314202,27.3331930752,36.3848400022,24.5471561929,23.0976894872,23.7077599296,19.8712207786,22.8030144452,37.8292973379,23.3809631589,19.4768953319,26.58636047998,19.4073241932,20.3526683502,19.7265122405,29.1424772378,29.7069184754,24.0844808999,20.8769211568,1e+20,32.302858946,16.0038503889,20.8189879462,22.8499474944,24.1706825191,20.2820950242,29.4823684348,28.564579506,17.1039751109,21.2521780085,25.8759965432,30.66160669448,21.3656012768,32.9229713869,22.5848005199,23.6990988202,38.0697217155,22.6465029929,21.4521459408,18.9574176798,20.2961619178,29.1633089847,28.2929505809,26.0764601749,26.8636718572,23.2756079106,16.4565726538,22.6250245938,31.5449062259,21.1413414919,20.1558310232,24.5713438853,15.56894084488,20.2316377855,25.6489046587
34.7207525238,40.9476499512,30.8263983418,31.9208433568,37.5466143442,38.0555385448,38.7868537998,36.4757967698,33.3893693762,36.8433240217,35.3535846369,33.497613639,20.5117113317,45.3396598581,40.5515663657,44.686054986,36.7191452618,42.6481536096,26.6134518588,35.0008309302,18.7710628258,29.3256092448,36.8670709172,41.4900869679,34.2904152753,19.2059317222,34.7818353556,24.0423149108,34.5428823448,36.2786527628,36.4415761182,41.579210092733,38.7132046019,35.7109081129,42.6937615247,30.18904347746,28.5150491763,39.8028841638,30.7683840292,35.7185925785,36.8290476882,37.3777077989,36.5554644583,35.9408624412,30.9316594232,37.2073622902,41.9708579002,36.1641763388,37.3749836508,32.5090550262,37.5956401575,35.7221839422,40.1979360042,30.6601029418,35.9210624418,34.5058900428,35.86359138189,34.7212124622,34.9323555772,36.0737877703,45.0437458628,39.3418924518,46.8789059599,35.0221427418,32.302858946,1e+20,32.6655673538,33.8274242922,35.6795621523,40.3744187786,33.1133219972,38.8273479072,35.6409200898,34.8596856348,33.4233897652,37.7195493442,45.83504856008,35.9039063368,47.2104165289,31.7575722518,29.5600778372,34.2730641375,40.2793446108,40.0668542818,36.1408646688,36.2195635478,32.6127742116,40.7785080248,34.4768385638,26.5361439162,39.4464847416,34.1844383518,37.9320578906,30.1850307879,38.6052966948,35.9993799048,36.4874158402,32.30239165812,35.5067980075,37.335057472
18.695887406,50.871387703,18.455082336,28.722356275,24.90143496,21.363308862,20.875893586,21.736476716,18.845568074,25.2001326891,18.9991858269,17.2923195572,34.1774759399,33.6382561513,20.137435748,33.1823275782,24.421188728,30.7556452946,27.506760231,20.7303783884,32.902659575,16.829093092,29.935045133,33.0024432802,24.6344899546,28.794449313,25.3754259278,39.397553457,30.4557026641,21.098534834,24.647517743,28.787028174467,29.4461450083,19.4097538229,30.4626345055,23.68665113526,34.0916073685,31.062588253,24.629936397,21.8460586777,19.823882182,25.105994361,18.3014557755,18.001108018,21.3109193704,30.800327738,30.500222218,35.309100013,27.933195594,24.400895639,27.6033091068,21.9815307887,26.536520321,33.825461781,27.010619278,19.526626677,26.87413074469,19.442519003,22.878984046,18.3800881406,32.950502338,30.5287387302,26.735087481,20.389168793,16.0038503889,32.6655673538,1e+20,20.810328027,25.1877448525,28.0183900062,19.260754935,31.5854257676,31.049751715,15.688210674,24.5283315688,20.995574553,32.84964609728,21.249468307,36.467632589,20.523680681,20.490309485,39.7373405977,28.033235453,20.837249906,17.370013628,21.091575522,29.1688075458,29.762011643,25.380926206,29.3178706,24.28322175,15.625936263,27.9077586206,30.130233515,23.307069688,20.360057547,25.16471287,16.30300541646,16.2352885662,25.5802932148
25.522312613,48.46692121,25.218275965,31.882832607,22.269617315,27.589147205,24.76374772,19.376903706,24.3218241045,18.6242852631,18.0928064869,21.4159596072,41.8232058689,31.6464013893,22.919279489,28.2900577932,24.48674253,26.4254366526,31.388533855,26.6713040864,36.087321592,20.121034771,29.033135268,29.5976192338,17.4332330216,25.217970468,13.5513829588,41.366340373,24.8155029311,23.283514185,27.859940447,27.180256832467,21.0903150074,19.5269059609,28.0564218445,23.45925612026,35.2807346643,23.936654168,31.118259631,21.1559716637,20.6328514,31.943803248,24.1589435595,24.604659505,18.2870000284,26.17251935,23.646543387,39.550478499,19.641684431,21.084861904,20.3618123683,19.1688903817,21.16390195,49.31198953,19.059406055,16.625475725,30.77960727569,26.851644313,15.401262724,20.9583675326,29.140955792,25.2037410832,24.486779634,23.777049089,20.8189879462,33.8274242922,20.810328027,1e+20,17.0658175215,22.6930615782,26.431590512,27.0750989046,35.404112052,22.487024815,22.5922000366,27.432486775,28.41524799828,22.408023788,30.949408616,26.002609234,15.654817242,38.5649784527,25.120399103,26.576528389,23.198630004,25.09279332,33.3685734768,26.290663018,20.427672251,21.900451563,31.384767712,25.657282307,24.8470873456,42.401047508,26.477903302,27.696015295,26.249834545,19.91882571946,23.1301389494,27.6460901848
28.0101947785,49.9310543695,29.4352214735,33.2681965605,16.3554841185,26.9859861595,23.6554744595,18.3618592065,23.564287286,13.6301623208,20.5852224724,23.2143968273,47.4651065434,23.6924238948,22.9498475355,18.4890947667,21.1043848215,21.6761063051,32.2397675925,29.0991690501,43.6981976755,26.9057370725,25.7767613705,22.5100576699,13.0406977382,31.8668701555,15.1539619737,46.4144872795,30.7845130266,18.433676512,27.2567975605,21.553635162934,14.2431369429,20.0099880114,24.308179169,20.04018699802,32.6838320439,14.5129360665,29.8425578415,21.0542449287,20.3648072605,30.5062052525,23.964140444,25.8549632935,22.6568214909,18.4784832715,16.1569044835,39.0319420835,10.2706403825,23.2757379545,14.1957348408,18.7372140133,14.9067303305,57.8855663685,14.3854327735,14.0663145985,25.63528168899,30.3067834805,13.099459006,22.8844746929,20.1979670655,19.0607049808,22.5100220925,24.0093333145,22.8499474944,35.6795621523,25.1877448525,17.0658175215,1e+20,14.8697493917,31.5812977085,21.3601190826,35.9414377245,21.7367535755,19.7585117087,31.2341585055,25.83015400448,21.703720409,20.8594385005,30.9005942715,20.0542063385,40.0258990726,23.3923220585,24.7005893175,22.9250743795,24.6828917685,26.9962798288,24.705196038,25.0845931595,19.0988663395,34.2603641585,26.5879420605,20.5383645072,52.7193690465,21.7539510845,24.9668518935,17.522609036,22.26196087196,26.2759380779,24.6718233985
31.3603539212,49.2280715512,35.0029847212,31.5719095942,15.8970971172,29.9166947428,23.5757029242,19.9266317588,27.6559994011,18.2400146919,22.5020948174,25.6198073914,46.9443975977,20.7962095701,25.0396982992,14.463019613,17.8655398232,18.508588139,36.1995879262,32.6543679896,47.0446666292,32.9060124532,23.6875784912,22.9889968539,15.3502704752,33.1110334078,18.7165529522,44.4451755462,36.3249507057,20.09845105,26.4324056746,18.039166576333,12.6083759575,18.2812113518,20.0068790655,22.86916352554,36.4639907239,13.5501814888,32.2121072272,21.3305074348,22.6471323812,29.2607676428,24.1094979117,29.7019883032,23.3126176732,16.5054156158,16.8503204238,35.548221199,13.7087329208,25.6613034582,15.9011156951,19.6720632145,14.2848997098,63.8172472072001,14.0044378376,17.5886866694,26.12491565991,34.1797957942,15.9493574386,21.9332223022,17.6422339702,19.1730291782,16.7554664426,23.697007057,24.1706825191,40.3744187786,28.0183900062,22.6930615782,14.8697493917,1e+20,32.1620552212,23.124047954,37.1334178292,26.2008135392,20.1331594508,28.8825285972,16.91363189808,21.7105152994,19.1272983132,34.8306089502,25.8041850612,38.7535037845,15.4571301902,24.6745913962,28.5589465482,29.8026022332,26.7018915938,22.5557272644,21.3201436632,21.5547755872,36.5158557012,28.1422169262,16.6433456394,59.1092996272,22.1887136278,25.2362630598,19.1659097922,22.40522725126,25.5346526228,23.3810935046
13.906580351,53.942840992,17.267768453,21.499457483,26.380334179,26.489768246,16.384078108,21.558162496,25.1852375855,33.8264409001,23.4483571649,18.7434170352,33.5845748369,40.0918412823,19.55535942,41.1069703412,31.030229285,36.6124367206,21.218894734,14.7373139784,32.47445164,18.778123306,34.698634488,41.1705129015,28.6150626346,30.023531252,27.7776347428,29.074843071,32.8740165191,29.499411814,29.763928654,32.193602011467,32.2530793184,26.8512144889,35.4063514895,30.92946820826,39.8712196669,33.021677378,19.516631969,27.1928425717,16.785574992,21.073588588,24.0459643235,16.244369863,21.5895369694,32.355562905,39.396488844,27.300107609,32.913674699,25.804118586,33.0205922763,27.8503032537,33.179841386,30.402711448,28.176104015,27.757960608,35.62765313669,15.883162441,25.985366061,27.2841696696,36.935781002,39.5331105362,28.474070674,30.880672809,20.2820950242,33.1133219972,19.260754935,26.431590512,31.5812977085,32.1620552212,1e+20,35.4190089586,23.34240154,25.088330861,28.9681930658,26.707480593,36.27075663798,29.215475005,38.099166787,15.405302462,20.65179529,47.2724018707,34.353215237,19.886235998,17.85001885,18.613385608,37.5376925608,35.523701596,30.142114631,33.956461796,13.410003815,19.037862592,30.1282344506,25.429387256,21.215267727,18.673765637,31.906704907,15.58892537808,22.4031426126,31.7007516838
33.6947934296,47.8722788316,36.9061490906,43.0684660096,22.0189209196,32.053551944,32.0109187016,25.7330344646,27.1019777051,26.4016881067,29.8485364745,31.1574544768,45.8766216915,21.6663960194,34.3827432626,26.5657165772,27.320496828,22.7262262604,37.6674932426,37.783407949,43.9557520646,34.1383513896,25.7953696586,21.3150015102,19.2638935752,34.4055596486,29.4302434008,53.5180354886,32.8401245343,23.4202860566,27.224551923,23.111065453067,23.3441551972,26.7198420745,22.831833536,32.91612068744,35.0694327266,22.22304654,34.3069318526,24.2103722683,29.6086804226,29.9057168186,29.2252661221,33.4432099316,29.105566184,20.8673141004,23.266078208,46.9794851396,22.056699441,30.6298152432,27.4246649723,27.0452574151,27.8944261834,57.5383441846,20.735477509,22.0381949756,33.31267541811,35.1262840716,23.1245990796,26.7504182118,19.4714801824,24.6671108802,27.7882055566,24.4056794556,29.4823684348,38.8273479072,31.5854257676,27.0750989046,21.3601190826,23.124047954,35.4190089586,1e+20,36.3156908006,26.6092618192,23.6246964204,33.1394395912,28.49686378188,25.2670473506,23.0697859862,36.4602191336,30.0004116546,40.7786742653,25.2956939112,30.4576822236,32.2313606586,35.8292392906,30.8434090684,26.792164136,34.6078390156,26.765666329,39.7380699696,32.3931342206,25.0844243788,55.0591081506,26.9929263486,28.9430121396,26.5368100928,26.33897626408,29.9889079222,27.3792842694
19.67048599,46.530158101,26.231988477,26.024627755,35.513825703,35.942313972,26.242985643,28.799574614,31.521486825,34.9975032641,26.5019579949,27.4326804042,37.2711795613,34.7162782993,26.199747705,35.3413587112,35.130236591,34.0004705554,26.322917275,23.5912222324,36.63132258,29.242611446,34.023218486,37.5804733481,32.3598125686,34.68590338,35.1767834328,33.106793021,39.8096139981,38.282209601,38.220683038,33.096499895533,35.9290630444,34.0558453489,31.1512814695,39.67409592826,37.0827839231,33.331105428,19.123219461,37.1377303517,25.886472492,15.866334205,33.5211628835,23.388943238,34.3082415354,30.258670634,38.003593166,30.526807971,36.183106463,41.077681461,39.8118506883,29.9225161697,38.306475463,35.769104676,35.035447861,33.317611302,42.29702029051,25.230475113,31.602794518,32.1455664236,32.578224932,40.8682338962,33.482141574,35.912119285,28.564579506,35.6409200898,31.049751715,35.404112052,35.9414377245,37.1334178292,23.34240154,36.3156908006,1e+20,30.177023099,31.0941948086,41.562162483,33.10648430898,38.601357943,30.572414577,21.591019063,34.11408237,44.6847775213,35.654560488,27.039100081,25.217177131,26.892097698,38.9650572308,40.161471249,38.593250209,38.24764712,20.31864362,28.013307275,30.9517492766,32.173444896,25.055375573,20.761617702,35.572281221,23.99497889746,34.2229780626,32.4411753078
22.761132371,47.220819525,22.304229897,33.29410329,23.864997372,20.919328393,22.30152142,20.809449389,17.225186956,21.6547009241,21.2451410199,21.1044616466,36.8524528759,28.3204603613,21.708465453,28.1852679582,22.269956759,27.882463166,28.114979398,24.4710912412,34.075673829,21.316558513,26.803706574,24.8293707011,18.8196710596,31.427121697,27.2469639188,47.39431511,31.2268230792,17.697961136,20.118281697,24.184934078467,24.6919249997,20.5425414839,25.936617216,25.64454159826,32.5239129913,25.825528869,25.44539198,19.9107658684,20.343817751,26.687828618,19.411185154,21.347454419,22.0865450034,27.887357824,24.498975573,38.599242661,22.786409159,24.569852645,26.3036797623,21.4009664747,25.976091216,41.125409163,23.579507354,17.944821464,27.47217953838,24.470365041,22.241380679,16.5442088042,26.156659335,25.1151710562,24.47363993,20.265115524,17.1039751109,34.8596856348,15.688210674,22.487024815,21.7367535755,26.2008135392,25.088330861,26.6092618192,30.177023099,1e+20,20.9716176192,25.73614728,28.90260264628,18.493568436,29.864461952,22.700098332,23.426563692,38.5423022957,25.540625814,23.129656433,20.629170985,23.557539488,28.9253320898,25.249540484,28.74705414,28.723076397,27.243503164,17.864793151,24.1226700246,33.88634296,22.652845928,24.173910312,22.8580909735,19.17180887146,17.9648538338,26.4540885716
29.4088047446,43.2245557874,29.4685638866,39.4546085936,19.9210659728,25.9020485822,25.7925582146,19.5623745572,19.866214148,20.5160096271,19.7043283033,24.7456356668,41.2148150653,20.8381409427,23.3863636896,23.7662754466,19.4404831444,21.4982686802,36.3010426996,29.257337783,36.7510083184,29.9497195322,23.2927881436,22.7850387993,16.2711708906,30.8710100984,24.874631824,53.3941519978,28.4420493945,16.2019613278,19.7205710564,21.242116182933,20.3204833003,17.6895693941,21.5024650509,25.45483721074,32.3532239333,19.4737804284,26.9589120716,18.5820669317,22.7014074856,27.3796624476,20.9993203481,28.1929339166,22.7935085856,20.6320092704,21.6683781484,45.1194903216,19.0040675894,27.6551905534,24.9298251027,18.9021818284,21.4089661526,51.2360604432,20.0285154922,16.969226972,24.09829521269,29.2540687976,19.3668059406,17.6101112996,21.2673323094,26.8652239194,23.6895858422,19.4371583846,21.2521780085,33.4233897652,24.5283315688,22.5922000366,19.7585117087,20.1331594508,28.9681930658,23.6246964204,31.0941948086,20.9716176192,1e+20,27.3809672708,23.83892795268,18.5912788288,26.2682329464,29.6103507566,26.927873042,36.2159015987,18.9315573862,25.0295493852,28.7473704606,31.1732473476,28.6395125994,21.5281840774,27.4685783978,24.8198821404,34.0773296146,26.149350843,17.3169734736,42.7313115566,20.6044770574,22.6511325708,19.2710611176,18.67803838726,21.8657894518,21.205575985
28.436003764,52.737895644,29.19812224,39.084510442,27.109972298,27.312633934,31.050268699,30.081700433,22.327351934,30.8331846101,27.3519949349,26.6468351402,45.4838706189,36.4485600713,29.474708128,39.2987416982,27.792713478,34.0199580838,34.9733589,28.7353076818,38.267238559,24.889408157,29.936302021,34.1534643355,27.5105174236,32.924061713,30.9572473428,47.066345406,34.0711803132,25.749932897,24.800711256,32.882397101467,32.3446444939,20.9148706529,33.5085313495,28.31717720926,38.7432186207,37.004371191,35.870442702,22.2583988514,27.483838075,37.173796279,18.966127543,28.830796308,26.9105148794,33.753397727,30.881774643,41.780514139,32.465169205,25.819831526,32.2655941808,32.5010220417,31.738361997,43.655470221,30.100627363,23.67481335,31.12674917229,27.928934707,27.419787482,20.3045127666,37.503360958,25.7755035582,30.687677435,22.553350374,25.8759965432,37.7195493442,20.995574553,27.432486775,31.2341585055,28.8825285972,26.707480593,33.1394395912,41.562162483,25.73614728,27.3809672708,1e+20,37.40888884628,24.697336292,42.553474014,29.75810482,27.621648783,39.8188811057,27.24945614,29.636998131,27.84381601,28.16871729,29.9093321128,31.386160294,28.128028823,33.860164253,34.660555105,21.860598858,27.6757243516,40.776062669,30.005229575,29.370117428,27.9636573735,26.33049555746,20.1626478142,28.1546546806
34.92074169998,50.07518038698,42.24271355198,48.47352715898,17.22813587028,35.19004618872,31.39747030998,27.82025430608,33.02097441728,24.77618223618,26.75508597688,33.12718229618,42.97812232418,19.61631991968,32.57870226898,17.97956312496,18.14515884928,17.63686436928,45.96082356328,38.28010508038,42.09266736328,39.38880393798,24.38369801298,26.72751870958,25.24576406858,35.67161524572,31.55887391978,61.21414332128,42.69936410318,24.06115027498,30.95722769228,16.148258791513,20.37949130948,22.50071300818,19.36679373778,35.75715054772,40.70485212196,17.85834202328,35.02504216598,23.74184795068,29.88666436498,29.56105371298,34.09457544928,35.64079420298,32.93382518938,20.49640596172,21.5550343822,51.74163387358,19.91146374528,35.00931975028,27.67883011368,24.35815377468,23.31453711098,68.79526403698,19.90722531528,26.49011067228,36.82409996549,40.44565046898,26.50702298098,28.33513513132,18.40357182828,27.39851600984,21.19399637098,28.19396173642,30.66160669448,45.83504856008,32.84964609728,28.41524799828,25.83015400448,16.91363189808,36.27075663798,28.49686378188,33.10648430898,28.90260264628,23.83892795268,37.40888884628,1e+20,22.46344679198,19.5257435956,38.40275173898,37.88743311198,44.52943351838,18.13679303408,29.49374934828,35.02161539198,36.30832208098,32.57549604234,19.86373217228,36.20728180528,28.58003739202,40.85474158898,34.43671105098,20.81978032068,60.73784693098,26.87555993028,24.30984786198,24.45613417228,26.38323588336,32.04663059508,23.50246773678
30.658495719,44.204281172,33.437786853,41.669391183,17.069913134,25.056417474,29.050404466,22.717549917,21.0661209695,24.5404170113,22.7049376549,26.2290565956,43.0492397779,23.0410380313,26.796590277,28.0803834092,17.036516289,23.1968475446,38.171115055,32.3030507754,39.517265199,31.160534388,23.427721136,25.0342532305,20.1945125712,34.530341969,26.5923922736,50.07606862,33.4126775533,16.473899158,20.193832678,19.060688098533,22.0498844134,15.9357748159,22.9495887585,26.06304865292,34.6624749421,21.007118507,33.792116698,16.6783115636,22.791113649,31.574109164,22.9863767865,29.498717687,25.6771967096,23.756659386,24.126978406,42.601221418,19.006436883,24.196466318,26.9466038793,23.8673741493,25.489285099,50.199598888,16.764823313,17.321902073,28.25678210589,30.704318933,21.564294855,19.6890858774,23.91561236,24.9150971986,24.310558011,18.452036661,21.3656012768,35.9039063368,21.249468307,22.408023788,21.703720409,21.7105152994,29.215475005,25.2670473506,38.601357943,18.493568436,18.5912788288,24.697336292,22.46344679198,1e+20,28.212324562,32.177437108,29.133941913,39.7552021923,19.952998604,26.393427156,30.063771101,30.863127444,29.5657226278,21.297397506,30.534976041,28.799868721,35.808212776,25.632238884,20.7250399222,46.222095043,23.333667889,24.05234853,21.94721134,23.22675297392,23.5226047844,18.7208751644
35.457767718,51.697338226,39.849930353,46.636494878,18.869310835,35.120998283,31.410013601,26.293539799,31.1862694875,21.7802289513,25.5526115069,33.0022738678,45.6798863439,18.7834091633,32.54272012,15.9836197022,25.571087409,19.3439642346,41.512320948,37.9790131526,44.517017101,39.085455335,26.525107753,23.5172319463,21.8465503356,37.808447371,27.6139977118,58.317436844,42.5973267455,25.548439109,34.251870444,17.622728644533,17.0392559424,26.6542112109,17.9753025865,34.04969421214,35.8855748775,13.835641253,34.28554109,28.9539636037,29.1209774,28.290771471,33.2602886195,34.145392692,30.1083451464,20.165579708,19.0022264,47.667395151,16.459223172,36.555264792,24.3296605087,25.5068951773,22.786204,72.527459747,20.482322021,26.697785068,34.21533920811,39.19603641,25.149370522,30.4245079186,12.784197904,26.3290320638,24.156116444,31.963765318,32.9229713869,47.2104165289,36.467632589,30.949408616,20.8594385005,19.1272983132,38.099166787,23.0697859862,30.572414577,29.864461952,26.2682329464,42.553474014,19.5257435956,28.212324562,1e+20,38.849288988,34.614279868,43.3462659053,24.194620123,31.417801434,33.871723834,35.634656811,30.6363939308,24.017291963,37.744416887,24.80849975,42.127939243,35.048459994,22.3172638794,63.138035443,26.001625714,22.043448807,22.4211490505,26.72896923346,32.4826253724,26.0832131046
16.792305453,54.989054038,11.586946062,16.413494799,32.265359541,28.393540156,18.602033726,21.443359719,24.4529762475,32.3840703881,22.4996230419,15.2671172334,36.6035991849,38.9981526903,17.037618886,38.3894973662,33.456074087,36.548745443,21.74321866,12.6174058368,33.83224277,15.891140029,36.363190839,44.472556847,29.9749123056,29.138183298,28.2267229648,28.977032797,30.9539701191,28.714509918,31.663552157,36.179682414467,34.1988188415,26.3538217599,38.6804049635,24.74003454926,38.4284338009,33.473245605,16.138419805,30.7734835567,16.153608585,18.833751645,25.9488378335,13.228073375,21.1249644944,33.655638664,39.667106223,29.258001408,33.592940568,25.808443407,33.2489953473,26.1351264147,34.967320989,26.662335632,30.720496813,27.114596158,34.08288806569,13.465318021,26.34065477,25.8961623066,37.363453611,32.8572180182,28.419464161,29.240718054,22.5848005199,31.7575722518,20.523680681,26.002609234,30.9005942715,34.8306089502,15.405302462,36.4602191336,21.591019063,22.700098332,29.6103507566,29.75810482,38.40275173898,32.177437108,38.849288988,1e+20,20.606120899,47.5373220787,36.49153051,21.759507196,15.049196631,14.12753342,29.8075207298,37.393658532,25.474109276,29.172339029,14.142579544,20.066618259,30.9813771426,19.653192943,20.95927892,17.030330648,33.7174516355,15.17331442708,22.8569165882,35.8746614158
21.516418911,54.148671082,21.162428224,22.177744909,24.963849333,27.634296936,22.277162076,18.858330866,27.311366779,24.4398421801,20.7214835049,18.7598702792,38.1573299169,33.7474360023,22.02968627,35.0478825812,31.697914389,34.9287475154,24.849044073,22.6093563244,34.66552576,14.552733371,34.995692336,31.6306095535,20.2895760786,24.166284962,14.6453206528,36.200121191,27.9723224791,26.067772275,33.398904654,32.835940224467,26.8092710236,25.1043702569,35.5806012605,21.55771581826,37.1508791111,27.017170528,25.844536313,26.2161617307,19.142268652,28.177534658,21.2824468445,22.303731633,18.7096395564,29.585707965,29.288927574,33.471677948,24.548988002,21.773784408,22.5037277613,20.2833145617,25.139601186,35.677426078,24.945823644,21.364887678,29.07299603269,22.985436001,16.035026811,24.3980538496,33.540467184,28.6619806162,28.76582867,28.943868432,23.6990988202,29.5600778372,20.490309485,15.654817242,20.0542063385,25.8041850612,20.65179529,30.0004116546,34.11408237,23.426563692,26.927873042,27.621648783,37.88743311198,29.133941913,34.614279868,20.606120899,1e+20,42.8668875457,32.473008367,20.175047428,20.455661073,20.637677422,34.8773727508,35.43287971,18.660201994,22.16893024,25.002516442,22.595057494,29.7124603896,30.512343846,25.007666205,24.590720073,27.854041037,17.28452130908,22.5930219786,34.8262273898
46.1082441067,35.6818617763,47.3009206787,41.3631973597,37.0002455689,41.0983476373,49.1468589037,41.6437754333,37.3538354133,39.3393506666,37.4079904604,41.3041908069,36.9435834758,40.9077497557,47.1495140137,42.5986090645,38.7070106126,40.4783018681,40.5220866087,51.8110722571,33.7603580257,46.7462270217,42.6036227109,40.4797739484,38.5807761297,26.8787493953,42.5691607715,37.0379078527,36.9518235002,39.1279735843,38.6815084203,40.345020524534,37.662196138,39.0098770392,40.6520471213,36.89285280004,29.9837463324,42.1128452713,42.3907138637,37.2587859916,45.9145071997,40.2572825473,39.6228879773,45.4654195487,35.4820722429,39.8108343783,41.7765896223,42.4444167283,39.9058547543,44.6010187227,39.8558048067,39.2989530046,40.3342542443,47.7274061087,36.5556447846,37.7556262413,35.08364028101,47.9113425677,40.0488292653,38.9937592861,41.8234924213,42.4259324455,47.4442871313,38.8073320523,38.0697217155,34.2730641375,39.7373405977,38.5649784527,40.0258990726,38.7535037845,47.2724018707,40.7786742653,44.6847775213,38.5423022957,36.2159015987,39.8188811057,44.52943351838,39.7552021923,43.3462659053,47.5373220787,42.8668875457,1e+20,41.8350836276,42.7645242967,43.3269511317,50.3260445227,31.7619789654,41.2219364279,41.6249579623,32.4104545913,51.5574983857,40.1540916707,37.1698726188,51.9087851647,47.2259001523,43.4884638013,36.9104642923,36.95687543822,40.1610007253,39.469066596
33.685450827,50.307912127,38.187670363,38.864480131,18.208230886,28.624603435,25.70911823,22.62128655,23.547842952,21.5666014375,23.2345960529,26.1404233002,44.8801772059,21.7195985834,26.598401939,19.6984653382,19.518509455,21.2762516722,37.811190444,36.1927973394,43.92885134,32.805300533,21.965249047,24.187557636,20.5215763436,34.877133067,25.5683447884,51.262088041,37.6372332629,20.279802782,21.600710839,21.461396337533,18.8711747727,16.2042152549,22.345582247,26.33553165274,34.9695824005,19.717002744,32.238343956,19.2437422017,25.806249925,30.966034119,24.293377014,32.871484375,27.3524513254,21.308344449,21.153379663,41.041377401,20.202476226,26.427112466,21.7762580028,23.5558124947,19.042577326,59.57025747,19.290619717,20.357868226,25.98725034069,36.083657869,21.280517706,21.876822938,22.165009262,22.3244209526,19.841464485,20.880658253,22.6465029929,40.2793446108,28.033235453,25.120399103,23.3923220585,15.4571301902,34.353215237,25.2956939112,35.654560488,25.540625814,18.9315573862,27.24945614,18.13679303408,19.952998604,24.194620123,36.49153051,32.473008367,41.8350836276,1e+20,26.686338124,31.022887912,33.00706765,26.6927657282,20.53706639,24.271431232,25.567937428,39.795381847,28.568986189,16.0741183768,56.072665668,25.704422284,24.516208138,20.2567206845,23.60582972646,24.7430602396,22.3858670608
22.574619232,53.797344614,29.334455818,26.582720778,23.135325103,29.720072381,16.4011272,22.756052728,23.1358618525,22.5426572251,23.8894721139,21.0678156272,39.3994769739,30.1608105463,23.066299937,25.7307574272,25.419758092,29.0784020654,23.152565752,21.9625080454,37.643866081,23.616424937,30.397064518,27.7372776198,23.2190574616,34.442486872,25.4071122018,44.243437381,39.2654584771,22.231481127,26.903089787,26.070302755467,24.3466287806,22.4255083419,30.6081352435,19.98297265826,38.0332408843,25.903073836,16.611526909,24.6146737087,19.115892055,25.086737793,25.0768930565,21.462877004,24.9420943964,28.799122139,24.071260417,29.430952609,24.257480229,27.444430925,25.8708743573,20.8683397427,22.620424837,41.780093405,23.463906031,21.16609012,25.48389144369,27.641128502,24.39740667,23.0131906572,28.747742783,30.7477073182,23.252935044,26.359443252,21.4521459408,40.0668542818,20.837249906,26.576528389,24.7005893175,24.6745913962,19.886235998,30.4576822236,27.039100081,23.129656433,25.0295493852,29.636998131,29.49374934828,26.393427156,31.417801434,21.759507196,20.175047428,42.7645242967,26.686338124,1e+20,20.337563039,18.157315777,26.7080534058,31.500630708,30.67218674,30.862298882,24.237600798,19.486641312,26.2188299656,39.605109134,18.323960648,27.488760795,16.8597075925,19.50694728292,24.7796656006,27.9819143048
15.710125588,54.993880125,14.420917952,21.072531991,27.84809221,25.473784104,14.281325981,16.601406277,22.7886907235,25.6192743541,21.3105901239,13.9678305954,39.3918102119,34.3718111943,13.227496286,34.4074994682,30.525971473,33.1980291448,21.86536009,13.3838113154,41.844780242,16.80491031,32.144350268,41.1542798842,24.5922041596,30.992155508,24.8003797348,33.562206482,31.3512995431,28.373502145,30.277533465,34.094950351467,27.0813729744,26.2127108219,34.3651566845,29.74452644026,36.6448214353,28.16400323,20.023400483,26.2597374207,14.445781676,20.343799898,22.6125732765,11.427710534,19.7361844114,32.703236278,32.978831573,30.35118764,27.274629211,27.630898483,26.6061357848,21.3720860037,28.846492891,34.951620303,26.111265382,21.508814055,34.03182737369,15.231031169,23.02724923,23.6606633516,31.599494979,32.9835193562,24.396384155,29.644530285,18.9574176798,36.1408646688,17.370013628,23.198630004,22.9250743795,28.5589465482,17.85001885,32.2313606586,25.217177131,20.629170985,28.7473704606,27.84381601,35.02161539198,30.063771101,33.871723834,15.049196631,20.455661073,43.3269511317,31.022887912,20.337563039,1e+20,13.856714176,34.0552012168,34.262735694,23.227864238,31.823773901,15.214323685,17.952122616,27.8576362226,26.776199547,21.028041118,16.222135479,28.2060877855,16.32901050792,21.4236021026,32.2020678158
15.847841829,60.8172586530001,18.604759525,20.235794561,28.443295587,26.756490173,14.904016424,19.093278999,23.5000353735,26.4253854461,23.1571417669,16.9149036004,42.5364567169,36.2206999963,16.736393123,33.5035274732,30.724725677,33.7859764014,22.44888226,13.7624664134,38.19613471,18.034495314,33.441055176,41.9350578093,28.7491924486,34.88593235,23.2300242508,34.671931164,37.6830066671,29.702365497,31.971594418,32.245521829467,28.9389323856,26.5830062469,36.7677579175,25.74241319026,41.0260062115,28.609224413,17.232073174,28.8977174477,14.641773859,23.860937267,26.2005492615,15.306481872,20.2365753754,33.133843513,35.060862536,28.773296624,27.884710662,24.782344,27.0587003013,23.0112150677,27.336934598,33.048551364,27.924389544,25.138628436,32.40976948469,18.73665728,23.534078612,29.0754248116,34.625440953,35.4703013702,26.415616012,31.429085387,20.2961619178,36.2195635478,21.091575522,25.09279332,24.6828917685,29.8026022332,18.613385608,35.8292392906,26.892097698,23.557539488,31.1732473476,28.16871729,36.30832208098,30.863127444,35.634656811,14.12753342,20.637677422,50.3260445227,33.00706765,18.157315777,13.856714176,1e+20,35.0872523688,33.65534298,25.197984251,29.213471758,15.182386171,18.798864173,31.2045642546,26.498720972,21.282046405,17.359050673,27.9178650215,17.76912435246,22.9124770022,31.5954010418
38.4083564798,45.5969577668,43.0567284828,29.0529804058,26.6842320072,32.1772323968,32.0431121368,26.5425305488,26.9113638857,25.6682396877,31.2370488707,33.426248518,39.3005900577,32.1555757516,35.0140549778,28.0761148288,28.5050057378,32.9740900662,26.4341315668,30.2073498012,39.6356074908,36.7449402368,30.6225350888,25.8673665406,28.0137617864,29.9619332038,27.4041353102,35.4460281168,42.1787783217,28.2769704786,29.6877839688,30.808561450399,25.7157988744,26.2570367247,29.9300438757,22.99402330352,26.6828226839,28.0549956158,31.8892683218,27.0338863192,30.9857815868,36.8128689482,28.1359267018,39.2455609538,31.0601756646,28.2942592952,25.7764552884,28.6260095016,30.2502611768,29.2294423468,28.1699181694,31.9118072337,23.6237637298,48.9069089408,27.6297663298,26.9982271312,24.77750466169,40.5554356598,25.5923559052,29.4942613312,32.8100468998,29.8701438542,33.4165672078,31.7924591816,29.1633089847,32.6127742116,29.1688075458,33.3685734768,26.9962798288,26.7018915938,37.5376925608,30.8434090684,38.9650572308,28.9253320898,28.6395125994,29.9093321128,32.57549604234,29.5657226278,30.6363939308,29.8075207298,34.8773727508,31.7619789654,26.6927657282,26.7080534058,34.0552012168,35.0872523688,1e+20,30.5865635282,28.5953289292,22.9423638618,35.1737191598,32.9219997668,27.0356169806,43.5970832168,29.8906992938,36.2246410808,22.5800119838,27.19257778126,29.0687824434,29.9887125312
35.94522537,49.551394625,38.506863837,46.99276008,21.050340328,28.156614651,29.98278918,24.037328534,24.578259059,24.1368429009,26.1322497762,31.4617828282,47.8901761589,20.0085978834,29.93515816,26.1585414532,21.623526316,20.9816705394,39.324847992,35.7095532464,43.205327653,35.297223326,24.107375205,26.4603632591,22.8091986108,36.653819533,27.937518818,54.062451298,33.8156452965,21.123476404,24.301919891,20.216838742599,20.914025895,22.4280643959,21.3540850645,32.36914292134,35.5903728227,22.698811378,35.406750231,24.5434390356,28.201446903,32.475479664,30.1955815055,36.063814611,26.9954555314,26.608724992,25.174890408,47.124840045,22.152494349,30.968387836,26.8772346597,27.2913133106,25.483182719,60.130589426,19.615601752,19.981232242,31.73971848611,36.836863316,24.587409155,22.2376475542,19.098144646,27.1573252878,23.447365664,23.268562129,28.2929505809,40.7785080248,29.762011643,26.290663018,24.705196038,22.5557272644,35.523701596,26.792164136,40.161471249,25.249540484,21.5281840774,31.386160294,19.86373217228,21.297397506,24.017291963,37.393658532,35.43287971,41.2219364279,20.53706639,31.500630708,34.262735694,33.65534298,30.5865635282,1e+20,31.297974357,28.00544089,41.126214111,32.286931187,22.3794277388,55.698244514,25.076132559,28.599603306,24.272701378,28.46863031946,27.5863418216,25.2299083924
