1e+20,35.4173578718154,9.0310988538263,17.8296450173662,33.1455973347954,20.3547751884077,9.21604053480848,16.8113090906848,17.5423271796666,34.8025994675482,20.0761955632438,9.89732261165449,30.908405758495,33.5395391257096,16.2794666637021,51.4777280610667,37.9223966561884,30.695425809939,15.2946530194624,14.4049406813886,33.346544383917,14.2240935173346,34.2613108487436,29.2450983904869,20.9874815918425,21.5423990087366,23.6546062966301,27.3043953760941,22.2380850691157,21.0528884357912,29.1570556592577,33.5841295003998,47.0238943477808,30.5546311590086,34.1625291281518,29.451601817116,26.0720363584829,29.2278603907973,17.7204260844889,30.544198153793,8.63689959939696,16.7917581887064,20.5167562502961,9.96829008972183,13.4457012333195,23.7631218862729,40.176457902235,23.6249223439945,29.1553701718921,15.9011446278087,28.9489077366037,25.2698517783716,44.9403546558537,27.9257196836863,24.5607222159911,25.2609228626778,35.0771594758864,9.20942095197059,19.026907485643,22.7637705181886,42.1622857368125,26.2911532115964,22.6028221325016,25.5776743923665,16.8100564569167,29.8061110799459,18.3134575418126,18.6217020612627,33.3719948978465,31.2358171442076,14.7152047809598,34.0926402203749,25.1110114665774,28.475755655553,44.015693700014,25.4233642627733,23.1172609191114,27.5961344176111,39.8255428315456,14.4946980718111,19.832861974699,23.9945407335857,26.7058004494249,15.5127727175745,12.607429849659,19.8008365818996,27.6752525676125,35.7152795096012,27.6977978595109,32.3383053990436,13.7912143210022,13.693669899028,29.1985638580285,13.7092905427993,22.8132756241932,12.876907547414,31.9762297927076,17.606719156686,28.2312374614989,34.923178047582
35.4173578718154,1e+20,41.1433148793246,42.4281454416328,35.5434686527486,33.7501532587843,34.0485211442108,43.6937679214859,35.5154810412606,46.8857045886218,40.4614160471577,27.2548383080016,25.6920581089765,37.2746787860418,46.7538010595944,55.1187784259341,35.7875434397506,34.1097615708021,38.0021198503798,46.6002379418229,26.524292701373,43.9049820132861,38.0731380106989,26.5516832670239,30.8386364425942,24.6282965623067,40.9336489117487,33.4635365573773,33.0505266552276,28.3328600078801,34.4125805484169,38.4039939138318,47.0154998031026,42.7568098114612,39.2453931269449,34.4411495736247,26.1292334904121,42.1810651398263,32.3772220389667,35.0528742771636,30.2878755701015,36.1955345200732,36.2413851226821,39.569489436606,36.660817420781,35.6932817831491,39.4323485698276,51.9396359749687,41.3065047607688,34.4313797880763,44.8687472290769,52.2477488914471,53.7302227830409,36.2871228137554,45.2120211032921,40.6930313087196,34.9242386501679,28.180456002048,34.1940298167178,34.7345960879174,45.1398105284414,33.2086790976412,46.5159853701336,43.2134009376934,34.5793917948001,25.726264449016,32.9419303228514,37.510469232328,46.8674852713028,38.5943475804947,37.5745711106111,36.4580087276157,37.8004850464361,40.3661169840655,49.9394159443328,39.517032278195,26.6566533974636,37.0056663957041,51.7275139494068,29.7895023013817,43.3803821535805,19.2546462118174,31.1290011726551,31.755444724104,46.4510760018389,48.4095789164758,30.5788382846534,39.8969042392921,46.7039853092376,35.9475973490216,45.2694877829686,37.5107413950672,42.453964902105,36.2884596571273,42.3467251138421,37.5848899566058,37.3654969548068,38.1385588530887,41.0052335648458,46.3694740741361
9.0310988538263,41.1433148793246,1e+20,20.3560435230724,34.2875248680789,30.6845281820048,13.5424087908878,14.3761124633513,20.1138170119637,32.4105547966446,20.1775580742414,18.4163421272372,43.5546192442192,39.8367053336369,10.4039196922686,55.00421655298,45.9713767694674,32.1335361680547,13.3822781390643,9.86083082431697,37.8487163354248,11.3930706198677,38.8919776725426,37.3399332093958,24.0553038815846,24.0557394744633,25.0309282956349,32.4683518712779,28.6572196065654,22.2408885212368,34.7286327592741,41.1619793607693,43.4013535639397,26.6413712688663,36.1106388983312,34.8449067117777,28.0669478301226,36.3578361765224,25.7941351633265,32.1382788815099,13.7727361937168,16.7550252449525,22.6216916924998,10.2333209343848,15.6335904122116,27.0965522202674,47.400498000558,24.5764278111112,36.034828919503,19.0403583389724,31.5630328352425,26.65409050178,40.4482602102491,33.6375960511316,22.2233222736376,21.2171821104732,33.7939009648924,14.5251111686814,23.2960052771792,28.2010969673165,47.3503562878655,23.0416589077946,25.8018139473696,25.4571082549037,21.8677961958687,30.2609746944028,17.241173188426,20.9878298314462,28.1587183638736,36.0622834828314,18.2058135036555,38.4707197702796,29.8661129500506,29.3976356776904,48.7884599043261,27.1806468760528,32.3264731148593,31.8333936675132,38.4254646338475,23.2825049148238,15.1837099643365,35.2816589370506,27.0661737093591,23.774220199098,10.1164904695257,21.8005002046853,28.2569930021339,40.3803522487653,23.5307920714204,32.5109655931864,15.7537146227061,21.2063453830403,29.7292238967954,17.7854299719997,20.7649528648226,12.6823829513119,37.9256039080592,17.4553890545855,23.4899396160193,38.1691721218097
17.8296450173662,42.4281454416328,20.3560435230724,1e+20,43.342892757905,25.7942186080801,18.8935700244016,28.6078247261543,30.9257145335282,34.5954541264183,33.5593577883988,20.9954322766208,43.8099700561912,52.584564409268,25.3403578888806,40.6635719734459,49.0663447878529,43.0482233090795,17.6692105966584,20.746939559065,37.1677133204788,25.6531998058956,50.0391942027392,42.0512582155245,37.9326830194352,26.9831537683863,34.3125231669324,21.6268770167554,40.1854560361853,38.0575155458045,47.5463177618971,48.4902264859816,33.3697757491174,42.0213560548379,50.8146898542437,35.8753226211964,28.2514868679154,49.5324558804439,15.2797107441951,47.7447071439015,20.8709749067285,22.4684035032515,30.2206760842831,18.8141281429361,30.0768037185429,41.2764031598723,33.3132760180575,20.6344777537077,40.8191590154293,26.8824494947744,36.0652902020251,36.8953261192867,35.4588845427664,29.1071118315325,39.2120377802625,41.7012146969669,40.8763772156103,19.097739670279,35.1713513129375,39.3718749574881,51.9613182972139,30.5993298750881,35.6579051354644,37.7404872043431,35.2539493612056,25.554350972917,30.1854657402832,34.7386739768432,46.8123531322363,43.8433256685301,19.4579539877759,45.056845944809,31.28526082095,43.0583700402505,51.5300922358042,35.2811492562919,41.6424743657611,49.0243883264964,56.223100169576,17.859445290718,28.4504845454157,32.0165377436548,39.9518165732626,25.288637492816,20.7906957697687,26.2323819151427,40.9794628994816,55.4770338926543,32.765581271555,28.4639726487673,18.7101053209441,29.6583431886689,45.818104234894,18.0923796736359,30.3332742614351,25.1722076385285,30.9314472947004,30.9455979336483,34.8534118505499,44.5702911582292
33.1455973347954,35.5434686527486,34.2875248680789,43.342892757905,1e+20,36.0903667033975,29.334024523662,21.2897661472414,22.133623085169,22.1318363192254,17.1936356469313,30.5811169367683,39.4868045385786,15.6795315800986,26.1959884332789,26.6145660902049,15.2386328949045,15.183576637864,34.0974119825096,33.6630939211753,42.3264644910144,36.4441725513345,12.4679318894749,16.4816912030812,24.2758945173872,33.7817889392256,29.6186629618461,53.416677803393,27.9049230319449,18.5588435608257,16.3127599949791,13.6240590213542,20.4534175173981,20.2459905771094,17.7784711924985,24.2619236029353,31.8758121128717,16.6552628362788,29.8671636802598,13.3199877205387,27.0813487105733,25.3633303049907,18.4057806921756,29.9637319379611,26.9931695524911,11.998258273465,18.9192022980336,41.9366642787685,17.4447855541488,27.1318690949125,19.422095817803,27.2008999679462,26.4719510868417,53.0433882214734,17.0379954029967,20.7185817455303,17.6337138971987,35.8066776949107,15.5334774557956,20.8017138954901,15.3865253511335,22.5391534322245,17.9111495743171,20.797790412694,20.4178122774009,39.8750047581909,24.1400395167353,21.4018075513865,24.0033025612007,15.2512597876735,36.509545592356,24.1001206208155,30.970055746228,20.6076445958581,36.2841592811695,22.5751657410041,21.2012306147069,16.1536960819116,17.6004335298922,38.0191059955515,30.1858928731183,27.6706513634412,15.0252836117672,21.9730032212216,28.2127332408384,39.1485755110196,17.3982687417879,16.3956546931678,22.8792873895558,19.0294759488737,38.5706861398136,27.6769670670606,26.3467836622148,47.2716099070884,19.7866899466103,18.5372442303138,20.7434207136612,21.9268701959574,31.8847717755149,18.5502161986758
20.3547751884077,33.7501532587843,30.6845281820048,25.7942186080801,36.0903667033975,1e+20,16.079742060035,29.8110813184495,20.7016440652535,38.2343083575466,30.9904923839496,14.9450608585475,16.434687269918,37.9393304699255,34.3610197995835,50.0425665743193,31.8191318239404,33.3946054180145,23.1387950070962,29.6069776998185,29.3831909319343,31.377005087083,36.7723576468504,23.1218899802412,24.1226307389257,32.4919316414468,31.7350054433351,26.3927892821057,30.4184737529635,27.573027629523,28.5261076207003,33.6042167914465,43.166063808731,39.3940633378044,40.2525987464385,30.7700221168275,34.8143966035522,38.0475171132122,18.0973474821995,33.1965065490035,19.4783736605556,26.5212098922574,23.575122490458,24.7528428723874,25.5335320787617,32.6558419112174,32.3304377558823,31.8717938098502,35.8224560612435,17.2396136152008,35.9606867704732,32.2174535785038,42.1653670556042,25.536972613615,40.324309575644,38.8365776305343,38.4322232077808,20.5984000494954,26.6974749609289,21.7696611623655,45.0107661197664,27.1980081020902,32.9160894199312,32.6302012804389,21.5204935324035,32.4833120767396,19.6691048615885,25.7802427942387,43.798629228773,35.1518218093293,22.8538728708358,33.4445057695731,29.6576843596115,27.0860929518359,28.4727668770464,28.5926924079267,28.366543197009,34.1897103869593,52.6142229398358,16.5267338987261,34.0922769238791,25.4974978797738,29.9382940435166,18.1441322675869,32.6462429152248,22.0664266571957,33.3599497440271,41.9828274585762,38.1849515819748,37.8308700398321,25.466148888668,17.5213982115047,35.1956376049915,23.53561740008,30.4189103466608,27.8642385195911,30.3614255919627,25.441213495587,34.6606201074611,37.7488622535492
9.21604053480848,34.0485211442108,13.5424087908878,18.8935700244016,29.334024523662,16.079742060035,1e+20,15.6036176601874,15.307066598317,24.9078779713939,21.4585317689881,10.4904819079228,26.4686227585333,31.0692255410818,16.6535802350025,44.6481940696969,30.8936819723353,29.6773255571105,13.6131408954056,13.2226258180008,30.3019282037619,14.4509946028217,33.1998284935538,19.93053060755,20.5936433113751,24.6353704479934,23.8406589741958,21.4806230010616,21.1720241474815,24.1359061673584,27.1308140761853,28.9859630279748,35.6647530306319,26.1589981084459,31.3568581116709,24.5685510737019,26.7865606610314,23.5018953529807,15.1378214360187,29.3094159500124,10.1343900915877,16.4600899893347,20.4069526429489,11.7559866292403,17.3329260532967,23.8959616179506,28.1128339123401,17.2124132023692,25.6541027799199,18.744092063098,23.9713492000036,18.1301542571492,38.3890106285079,24.3662843301301,23.6292511750546,23.3475446226367,31.8685609682985,11.7074810000251,19.297741823804,18.8489384960786,37.5914135869018,22.9221642299085,20.6989703341524,20.3167842074439,17.5876321738619,29.1443037263903,17.7218735343185,18.4813413887326,28.6029938343791,28.2788250161146,15.6458646824975,30.5219032873283,22.9530879412722,24.6687070539974,33.6162762072708,24.6625779734997,20.7002922698516,29.0927838696456,34.9939652703918,14.994506969281,17.137535477458,22.2255860910307,25.2232393822826,13.4546981062772,12.462851041014,14.5126509923895,26.763261995681,33.26717268158,27.9200561248651,31.2632435783262,13.9423779919968,16.4758763420978,26.0761379720022,12.9302419170791,18.7564445609052,14.6764501048424,23.0881450827439,16.8179957974258,36.5117351097352,27.2855115752027
16.8113090906848,43.6937679214859,14.3761124633513,28.6078247261543,21.2897661472414,29.8110813184495,15.6036176601874,1e+20,13.3237403519555,12.552845732718,12.6447519875091,22.7145573392786,38.425342666722,20.9801832792345,9.27473020713494,33.6679163634299,21.7904488382529,22.6917775712471,15.2383835690322,10.9759425426672,40.4142385735118,15.9795028833605,21.87141147739,21.7107351822545,19.1249798660972,32.1880892742697,22.4255176401189,41.3598481911885,27.5068826171263,19.7815882075397,19.2597414768306,21.6180927315784,25.2987900389389,13.970215636011,21.9127180912663,19.9327149481055,29.0364666084651,17.4415700825134,24.0189902670912,19.9908557923966,17.7825334571522,22.5353059672345,17.8664618478676,12.2750876523666,13.1353006182107,16.2816465149354,18.8098434049453,21.836968512132,15.1189713400219,16.8745752147442,18.7127625922465,15.644097100289,23.974231912512,46.0303915772286,12.9748955487027,11.997840467501,25.6696810871644,22.9306263324858,10.9913680040527,15.0602650245853,23.9758663746051,18.655213475163,12.2701456341703,15.6300991974121,11.2742991055525,40.5223262472917,15.9404502683623,16.6889464546415,14.5785021984315,17.7270356543897,16.9150562395599,25.1818488442656,23.3040366713793,16.0998186352375,34.3619556712686,16.8297685210603,23.643440251145,18.7084474373249,19.0176139315829,29.9435647135445,22.1690138953474,29.5109884290518,17.5274989366117,16.2606655062151,10.3768067188625,15.8689507209417,21.9847605998451,20.4416483866316,22.3220348213255,23.383777627352,15.8565037840464,14.7429048816737,17.0517358630659,30.660948590403,10.7651416212955,10.5766585385294,18.3675240157516,10.9349656428343,25.2908468686767,20.2933401921375
17.5423271796666,35.5154810412606,20.1138170119637,30.9257145335282,22.133623085169,20.7016440652535,15.307066598317,13.3237403519555,1e+20,17.7375734357279,16.2724286324241,16.5371672301226,25.1102046151569,19.8269222363384,16.5011912622844,40.2335219770794,17.4773592195328,22.6200865544757,16.8406729463627,19.7239974497807,31.1904144403239,21.1626351293953,19.2697930871873,22.2391762221892,18.660821146872,31.5217252032043,25.9622756114807,37.7442155991956,24.9375890674673,16.3827499219771,16.2847286863791,21.1731481896923,32.1041572954748,18.7559105711722,22.1549475503922,18.3099344166841,31.6599814614286,18.333260168053,24.5561430545724,17.9672474317993,16.6116484693883,20.9399428912048,14.8934456299359,15.8045145648484,15.5343661130711,16.5457119920854,18.223391253919,25.1703140408672,17.6239920571473,16.1435979590401,22.3298582614278,18.5443651686066,30.9515329343749,33.3710804754075,17.5663592773112,16.7691340277191,24.6360115344344,20.848524750068,14.3354402962455,13.4373769615455,22.0483454341419,19.3498140497592,16.528764270467,16.3179110804569,10.1356643388331,35.1850277232126,11.2831303400136,18.3355262970822,20.1185091391251,18.5485715515524,20.7528607280947,24.1384342801769,27.6454822899821,11.029803634451,32.4078279286423,12.1906301011316,21.3251720535147,15.9066673853699,24.5064009370052,24.5819238063763,24.4348001274286,24.0753241673856,17.1620463445934,15.5919449766267,16.9455150864652,16.9264167342876,20.4539273198768,21.1133787400558,28.5501204963913,24.9926459591393,19.972089864353,11.1880153420674,18.5866150569048,27.3485271732532,14.5369477180456,14.6270297372559,19.9360903895779,14.0002245471097,28.712937608025,21.6142627140078
34.8025994675482,46.8857045886218,32.4105547966446,34.5954541264183,22.1318363192254,38.2343083575466,24.9078779713939,12.552845732718,17.7375734357279,1e+20,14.106409144649,33.0356314529048,42.1322649881721,22.2235353113646,16.5805155688335,19.9348145443698,23.8696288344214,24.3640804602117,25.0723800095421,26.3916257657605,43.5456235188667,30.5660393068846,22.9780486111175,19.5528556527701,22.9636876150487,41.2260023595825,18.5912893545528,56.4747186327302,29.8408165083253,21.1176964153682,18.2355239223556,23.7590290669131,14.1884562904969,18.6154245319216,24.4779237041583,17.5142757143626,30.0507454131334,21.0088562331081,26.8528962241603,15.8661177909027,23.0294544709449,28.0221226257156,19.7550923648484,26.2494707865122,19.8391408511572,16.6415526604905,16.0802790097328,37.4197474835209,12.4047244162865,23.9748714893873,11.9508773489901,18.1861135598682,11.7825668136111,69.4807676764285,13.7840535691584,14.2764145940448,21.1862992810226,40.2104803525301,10.7644172136907,19.8934438299048,22.0212715140641,11.1137055114694,16.9042143966257,19.0041008188333,15.5421921986342,42.7126576040632,18.9505605639322,18.6856563090407,10.6985327381638,17.5467326672285,36.8963699256074,28.1636959854448,31.3009688327821,15.3878354611336,45.6726593823921,15.4677804326766,25.4877429862191,15.1563071155326,22.8088620977877,45.5248043813081,21.4727134884751,31.6365652272422,19.715019942799,15.9324856305833,22.5645929301834,30.5010245151281,23.0167631392167,20.6157840986656,16.6452663222522,17.7582151960334,35.6592716025565,25.5740014443842,21.3607457515065,56.7384495823252,12.5719952879035,14.8687079916941,10.1471671518682,12.2050550261766,23.4852159455067,25.8596620038947
20.0761955632438,40.4614160471577,20.1775580742414,33.5593577883988,17.1936356469313,30.9904923839496,21.4585317689881,12.6447519875091,16.2724286324241,14.106409144649,1e+20,22.6330267757443,39.8584025400633,21.2676996431943,14.9662434131023,33.4958901802868,17.9791154144166,19.0151418621279,21.6583949186449,20.5070354812984,36.4235062227701,21.9029338710338,13.6658197644944,19.5164050290405,15.8355041865313,27.6660252883093,22.465242807396,44.1696507501082,21.5752781729514,18.121222686583,15.9436755564012,19.3703206866619,22.6646425229543,16.7465186652866,20.2978526394999,22.99152815309,27.7210506820719,17.7410843628361,29.4252883358618,22.0996202288936,16.9370571109793,22.6422772175029,16.7626243290062,19.3869633266366,16.7762671720283,16.3707856952083,16.8877394992586,31.9907464544219,15.5650831711571,19.631225140119,17.2824951730963,18.7250011113665,28.5037933008965,48.4144550177304,14.9372511415656,14.6470123881302,21.9151107358246,25.5526692125343,10.3131336230798,17.238902494,18.2214064434562,15.9934863060669,15.9108104522119,17.9412187036743,14.5727920181759,36.7549329166104,14.8861164924859,17.350210267933,15.4953493429021,12.1259637140245,27.1235556591771,19.8875146901814,29.8432614311268,15.5827003493607,31.1026834698888,18.2120394814453,19.0966693664249,21.709666591807,19.1702022932067,33.6285983243449,20.4370987833319,28.0728361291275,12.0058845882222,21.2224299289033,17.8915116923227,24.2460098128053,22.966037335988,22.5094894743511,16.9788086550997,19.006562965928,25.0318857271333,18.2832959543816,20.8469388298016,35.6950899977061,12.9005867076888,10.7344967353031,19.2818254697267,12.2642788467525,27.1259665847285,19.9392000031888
9.89732261165449,27.2548383080016,18.4163421272372,20.9954322766208,30.5811169367683,14.9450608585475,10.4904819079228,22.7145573392786,16.5371672301226,33.0356314529048,22.6330267757443,1e+20,22.5458297705054,34.9555219756835,26.6691618284729,51.0593679056905,30.9251976489678,28.8057023860204,19.9194313921951,22.6493534739142,25.4124904332787,19.8510688775093,31.4987190061496,20.283944687202,18.0616526068388,21.0668167702167,25.8667643097661,22.9395750057035,14.6190735567208,21.3226823453931,23.2419954154832,30.4086194651039,42.1819259685687,31.9632919869094,33.6393983307033,31.8409033605485,29.936073170254,29.9440750321,17.5270438346662,29.3669311910133,7.40440524116149,18.5723360247703,17.6291718148661,14.2537117441458,17.3810040840674,22.9237462389948,31.6333404902982,29.8291021658581,29.295757413052,14.8200309276951,30.4523186757294,30.8091314984586,46.9636182977222,20.6914800847225,29.8932013641882,28.8383778715269,30.2131720320063,6.89257101613824,17.3516077850674,18.5527249838753,40.1295005926593,26.7612594975338,25.5484483860774,26.2567841416695,18.2100516451933,22.5973066920542,16.9862318197768,19.9207070899998,36.8045163140159,28.3975379558709,19.4508760429203,27.4003503343323,27.762637018513,23.2214597315869,36.6870243201445,23.2658271684726,20.0934003220609,25.6791727813802,44.4099467228492,8.28863700996106,25.6754751759079,17.8082109490032,25.6189556560323,13.5282423926717,20.779672233263,23.1365760105012,28.9690386615369,40.1512227394346,30.7626460727577,33.2811603513673,20.2723688061059,14.6551975295553,30.5448756483889,10.926948201638,24.5846628506421,18.5722752841919,25.5515205557699,19.1128890959144,28.5996176302591,35.6146708740648
30.908405758495,25.6920581089765,43.5546192442192,43.8099700561912,39.4868045385786,16.434687269918,26.4686227585333,38.425342666722,25.1102046151569,42.1322649881721,39.8584025400633,22.5458297705054,1e+20,29.0334486625853,49.7133865895789,56.2487938175568,31.1128075353037,36.5593568365899,25.9512339540233,46.2340402360618,24.0674419008836,36.7681536625172,34.0597414815172,26.9045238862387,24.2849472555328,32.5962890802615,38.5754217466146,31.2985597086943,30.5114123003245,29.8181608370332,32.5664502497766,36.3186512477031,45.7033769123376,44.6839257584118,39.3731395696773,30.711471047346,42.9789726731594,35.390054500211,22.4610155849785,27.8874288169898,24.5128253141707,34.9034583089322,31.8990315569869,36.4005526758152,27.6877019812514,34.3557330207847,29.0602633047732,45.3598831036133,35.5290687463454,26.48981708672,45.795025293246,47.1723320489937,50.084217187839,22.1007574837195,46.8847106288966,41.131422075259,43.6196750115906,27.9989096798859,30.0043125482513,30.7916199029247,38.6723475292429,33.0853538881301,49.706384499634,42.5812252012709,23.7958225314156,30.008720675144,27.7539110731327,40.1025168183307,45.3922155278613,33.7928411823933,27.4925181523054,28.2338990084943,34.9189375520286,30.963344712096,39.2531401429961,31.5923029484132,16.6565741747202,26.6464485996516,56.1926496760686,23.0436063468059,43.0385286284942,26.2864617888453,29.261129713634,26.0317949093031,48.6610439877198,34.5712902765046,37.9810622104154,30.2164253840482,42.5119018045886,43.1845851205407,39.1710923676184,22.4313317414125,33.367201451755,29.9359359314108,37.8172040820554,34.4996955516551,28.8484393662628,33.3535139342641,32.3787756370725,40.3577491806127
33.5395391257096,37.2746787860418,39.8367053336369,52.584564409268,15.6795315800986,37.9393304699255,31.0692255410818,20.9801832792345,19.8269222363384,22.2235353113646,21.2676996431943,34.9555219756835,29.0334486625853,1e+20,30.0773676142877,24.8496358897012,17.6276544951228,14.6907662244798,32.9502472053721,35.6649089895605,38.1105658950401,40.6570119163392,12.1555351917193,19.2506664620955,27.1268703508597,32.7393218876109,30.0855566254484,63.1111217867417,32.5342446000257,23.5715036515915,19.532319460933,14.0063833934654,20.2666420398562,22.4142424873136,15.8462570204912,27.02955495778,32.5821853332009,13.0613504976275,29.5089653892948,17.245232896251,30.5264953406802,27.1314163437767,25.0842987375929,32.6903583299575,27.4313609612086,15.8041346095801,17.6391410143684,39.3275067726068,15.2115853292996,32.5073799474785,24.829181482998,25.1926212056115,22.36101179035,63.4743989678048,18.3958238939259,22.3448069404611,23.9621918758957,43.3750201416063,18.6673683048151,26.9698274500927,14.7407403487903,22.6430365918313,20.7988630239696,25.4920009768712,20.3534148717632,44.2391626426595,28.3549822203083,27.4641180035514,22.8095067053301,12.8109187190381,35.3813804696227,25.6866524797409,28.7895425586425,25.7836560691043,35.9480691106716,26.7199855856271,17.4081711451802,15.6869559645649,14.9874524190795,43.3289003815291,38.8358289812053,30.1691007898773,20.5777317631686,23.2130164362523,31.8089205663294,35.2182617648375,20.6099495511943,13.3003271361177,32.2043552319919,27.3017263126807,40.5950613716446,27.7170606333657,20.9629036357027,60.0774277494938,19.8534897745049,20.2882449339202,18.8096792195356,24.9963960612389,40.7381982869614,15.7503352527152
16.2794666637021,46.7538010595944,10.4039196922686,25.3403578888806,26.1959884332789,34.3610197995835,16.6535802350025,9.27473020713494,16.5011912622844,16.5805155688335,14.9662434131023,26.6691618284729,49.7133865895789,30.0773676142877,1e+20,35.4398820747967,30.1769056928727,25.0149109418982,14.635895974775,8.28740634071093,46.5660323140012,11.8875631465546,27.5763108064836,26.3953067722484,22.8410434341143,31.7450536065743,22.4320029469241,40.221671158577,32.3969724309118,19.5048812344804,24.2598958212924,28.7300315433996,25.5251903972396,16.0742203021072,27.5092058692717,23.8863381248086,30.69472898715,24.7350402898692,22.4036142961389,27.3356924313417,20.8617069163197,17.6963062484902,19.4307557497128,9.05629904703133,13.3709540444049,18.7747776347059,26.9362536837381,19.541756185021,22.6426972810946,18.5222356402332,19.6194873083453,17.7738571650516,24.7913120872549,46.7072499300609,15.0713226752131,13.1531645605323,27.7423230351246,24.100283450238,14.0268727989528,17.8611573014531,32.3782968216443,18.5949008627156,16.6548696729611,16.1306634023301,14.5292626316261,39.4659853341251,15.6562714006263,18.1092954848402,16.0552176814447,24.0941348756192,15.7562836315414,29.4855225818447,25.4618041018402,19.9046163353594,40.3359772174049,19.2789566329305,29.7256294757884,24.8735028350936,23.5440276431212,30.0408413706917,17.2862768433902,34.7069007024522,20.0655481188092,16.1564676485693,8.85477683890714,15.9323176737402,25.1432136411177,31.3259649403385,20.9842285533564,28.6017125823079,12.0670851477413,17.1493327012573,20.3985000905239,29.2307378368543,11.9221971371386,9.35083352159805,20.849417473889,10.902516020121,22.9831359037486,24.8580729554426
51.4777280610667,55.1187784259341,55.00421655298,40.6635719734459,26.6145660902049,50.0425665743193,44.6481940696969,33.6679163634299,40.2335219770794,19.9348145443698,33.4958901802868,51.0593679056905,56.2487938175568,24.8496358897012,35.4398820747967,1e+20,23.3018451994943,27.1922971798449,48.6073683178292,47.7118797610965,61.1106200096094,53.8997670001685,28.5938020986843,30.3943662813396,31.6772331916477,47.6271779940462,32.2357742618116,70.7077585266508,48.6889316400643,34.6114312485899,32.6485396988588,26.1663074489785,12.4979729761293,28.7706261413239,24.8484802277392,32.8246805804799,33.9727513071157,20.9541232122356,43.3701334468039,30.6454375014745,33.0347303582502,38.1458045042717,48.2752174567804,50.16675916219,49.8242378187928,24.3034121426163,16.4791644854859,50.0455004044285,16.5031236784998,36.6344782833902,23.8065682001079,39.4168583706369,13.017282857568,91.4767495757746,22.9727061285861,30.5003678633072,37.0473148720896,57.1661323679567,23.1405088200555,34.5076904090445,20.5868681365859,23.2262264545166,22.5929802341936,27.2219936576547,35.5186038545065,53.7193744057922,44.063448223127,27.4800930618254,26.0415704314277,21.3857515575931,61.0327874402682,29.1890790303949,44.1425660813715,37.3301225169258,49.1208580115664,36.6190931603906,27.8711016772055,25.5182984862171,25.6875616848775,60.5120836442489,42.4779292986727,41.3446119919881,31.75936327504,36.3707796844968,48.9588155191431,51.2659060370579,46.7371136114003,30.7171413725786,27.8165622733868,24.9295249403773,57.175524891062,48.901742864518,26.7766177480063,75.3871645879579,19.964352178085,32.0823803340536,17.5708047252445,33.396976888752,39.3103171641526,33.869640703408
37.9223966561884,35.7875434397506,45.9713767694674,49.0663447878529,15.2386328949045,31.8191318239404,30.8936819723353,21.7904488382529,17.4773592195328,23.8696288344214,17.9791154144166,30.9251976489678,31.1128075353037,17.6276544951228,30.1769056928727,23.3018451994943,1e+20,15.4920143934807,36.393964584479,38.8070783122047,40.4236658762207,47.9033246550192,12.4663729273849,17.3428568345682,24.2501113174662,39.4261006548834,35.1791490512392,62.334119787381,33.1577837829768,17.5970128449722,15.2275398150674,11.9388926310841,21.1356291266681,21.1315480857183,18.7511591516461,26.7829297632793,33.4266287407141,15.7603255147485,25.6800619599069,20.0169490082326,29.3489369633147,25.1773147755117,20.5695163880108,33.5625824217828,35.3268788714175,16.3642361110833,16.5019861414331,42.8830347453499,16.5606685546909,28.5787901511429,24.6437642710718,22.4600578216916,23.126142565,64.9552186135616,20.1045365961407,24.289613200037,28.3764660001905,41.4192755616764,16.820858345,19.8592101042859,15.4485171546007,24.5244733727121,17.4904878927466,23.6480922241856,20.6231979181169,41.313641639658,23.0745334684481,26.2848255532307,23.678771708645,14.1731444009721,38.2852748539584,23.9483242063424,24.915700555791,21.7326998682888,23.2253872680644,29.9680633191304,23.8345200684893,21.1404574363021,19.5373027052112,41.4098807776488,43.4882167835872,29.9962508338131,14.8296044766395,23.4188750675198,34.8612017830016,34.9469055168934,24.1111238909748,18.2115546551788,30.0270441462143,27.3335223270465,40.9278344577838,25.5118879148095,19.2924001816389,59.0722265287586,18.2134235868036,21.2669856311853,20.9117937408982,23.6610058356379,39.4315045754095,15.2000546974773
30.695425809939,34.1097615708021,32.1335361680547,43.0482233090795,15.183576637864,33.3946054180145,29.6773255571105,22.6917775712471,22.6200865544757,24.3640804602117,19.0151418621279,28.8057023860204,36.5593568365899,14.6907662244798,25.0149109418982,27.1922971798449,15.4920143934807,1e+20,32.6822469821728,31.8776479890636,37.3414099414906,33.9469174714872,14.8071466381812,19.6866362277503,23.9997350422549,27.5725586756598,30.9694593737766,52.4236777478268,29.0725185993817,16.2339956482308,19.1375030723315,13.9361121362387,23.809241650054,21.3279318096505,13.5812997016496,31.1903998032235,33.8102572719344,15.4023486841024,30.2455109675988,23.0137051782229,27.2550030515968,25.1480672346037,23.5152475207817,28.3454659123328,26.7051520910218,15.2772343145427,21.5843523475455,38.9888303377789,19.5624332251334,28.4493398523761,24.1646533695319,26.5339129107464,27.6012894280946,51.7339971001896,18.9375064714328,19.9877422775266,29.2276091445307,31.7104027145308,20.9287360251776,20.7363456821417,15.4056948152711,26.9286355151283,19.8231836365827,25.0232382118668,24.1809363923986,38.2526174038948,23.7868085329734,19.1815812107393,22.0572828064378,15.9436108177483,33.2094381485828,24.5837320325807,27.3234317020826,22.9163059047042,22.8936040923647,30.5054660030392,20.4383851648418,22.2590446315604,18.107416584077,34.4817387305537,37.0471171467081,30.5092771926688,14.9712853758413,25.6850469512688,28.8246635774426,32.6127993168773,26.5418738725997,22.2809246757537,34.7787017766208,26.2937681638017,34.3011230821874,26.5689169253218,25.3184812612119,45.9307566406722,21.6579121455023,17.7550685951788,24.6845897271382,25.4495045447576,34.7636358569132,19.6335375696997
15.2946530194624,38.0021198503798,13.3822781390643,17.6692105966584,34.0974119825096,23.1387950070962,13.6131408954056,15.2383835690322,16.8406729463627,25.0723800095421,21.6583949186449,19.9194313921951,25.9512339540233,32.9502472053721,14.635895974775,48.6073683178292,36.393964584479,32.6822469821728,1e+20,12.526558542655,26.1339120625739,13.440894591887,33.5850699914581,27.1949258428657,26.0379034231617,25.1561278090098,22.2947246557051,24.7451680836519,31.9037686227449,23.6326828781219,32.7509276412732,37.1239997953924,39.483010602747,25.4866933094138,33.6303843319812,24.4143052581174,25.8339748823287,28.7328854751905,11.3529718712978,29.0722366749657,16.3469919875582,16.1303651253242,22.9466491379503,11.9168446533589,16.4253568776483,23.0992268545523,31.9791868145278,13.5878188521234,29.1288146061082,16.7288367790148,25.985567620542,22.3997128921817,33.3394901376486,24.383224050182,23.4449869547164,23.2314940893396,27.5396221818878,18.1644760975499,20.1592070318342,24.9394727991848,39.9049969381685,21.7352918694675,21.5777235726604,19.7888358565051,16.5088825055777,25.824898595891,17.4241588835181,21.4149552508341,25.4154853269592,30.053537373205,12.7569672214427,38.7811781529393,22.918810003066,23.5290662478939,47.7293392700212,23.7583271908279,27.6269010638264,25.4360639928477,36.6582266532501,17.7719535179589,15.6389150884311,28.6621718697255,25.0333709743135,13.7083263665063,14.8950162097321,16.2389740943974,26.2590518613591,34.3892272006356,25.8243156411212,31.2113270035043,10.7938649850719,14.4735110045773,18.8829291817706,17.9762770846152,16.9023414926892,15.8072582084584,26.5709307485199,16.1536956573178,21.8882072630021,32.0592429646763
14.4049406813886,46.6002379418229,9.86083082431697,20.746939559065,33.6630939211753,29.6069776998185,13.2226258180008,10.9759425426672,19.7239974497807,26.3916257657605,20.5070354812984,22.6493534739142,46.2340402360618,35.6649089895605,8.28740634071093,47.7118797610965,38.8070783122047,31.8776479890636,12.526558542655,1e+20,43.8824866219322,9.79476648862921,36.6090350081854,34.115955439139,27.7074435563882,32.4359358403321,26.313994950399,35.1382856734841,34.4805621122813,26.0230754933738,32.1838512941434,35.4436137644521,37.9098516581504,22.1821147377621,33.8908539554698,30.2055428968185,32.0027574086758,30.807650585857,16.6963737713864,32.0576237992397,19.2869174400199,14.8186824559355,20.6704276777283,7.59001906911071,16.3112159125818,24.3435174340354,37.4993214031829,15.0520393016143,33.7093572000611,19.3526117617857,29.2324989765369,18.0868008366446,28.4653106164949,36.8869126744588,18.5438423064264,19.6622834908148,33.3209161643059,20.3317146365052,21.1190886681584,26.0335144454845,43.4492392063996,21.8681228074444,21.1133647453356,18.1745884439153,20.8540754556342,37.6007111491366,17.9187390842876,21.3112452302917,23.2053009795907,32.6426544907837,11.8882707947135,41.040755496593,23.6306928180349,25.9123671845534,38.7496760900075,26.4044287552522,34.8039244652622,28.7456429587884,30.0843488133852,23.8022765364247,16.5647275235656,36.2477932863238,27.7081395151184,14.9905377939802,8.60130828690206,13.7758582843004,25.8049075568182,38.9767373223428,21.388683999433,36.0529047177247,9.2141467130733,20.3447969266902,24.0943541482735,20.1219065142686,15.2031649516216,11.0096788281953,31.44217242541,14.9471261033172,24.1415016812534,26.6360282926106
33.346544383917,26.524292701373,37.8487163354248,37.1677133204788,42.3264644910144,29.3831909319343,30.3019282037619,40.4142385735118,31.1904144403239,43.5456235188667,36.4235062227701,25.4124904332787,24.0674419008836,38.1105658950401,46.5660323140012,61.1106200096094,40.4236658762207,37.3414099414906,26.1339120625739,43.8824866219322,1e+20,31.7018419551441,37.7579031698679,28.3560798204236,25.5026587830475,17.6043094955834,31.9399086233381,17.8558371453254,22.9537863545078,31.5371742011016,33.8244845239079,44.8282847210889,48.5409427417719,45.6333378230099,38.7814053735464,33.4436681632192,32.5348087486271,44.2948987183735,24.1383890831866,39.7210750872803,22.9467544867488,32.6475675507797,32.1612170627644,35.563334150589,26.968199888411,40.973127681927,40.7112782145722,42.4095265526285,40.2639270202406,31.1199973269416,44.2935791132167,55.8285893807435,53.2578454485655,27.5484104501862,43.4354091200649,38.0926222438852,36.8766376850238,24.8037981416016,29.6789860847978,34.8516703300795,42.6712646797009,39.529223322565,50.1293124095486,40.0860862863763,28.9532031836783,10.3909383428116,27.8064435150289,33.3859640147764,44.0282805804476,39.0219494336082,30.5018809437442,30.8150736214118,36.3668008981033,31.5738959174716,59.2533738321106,34.1090934187693,22.6727092106361,36.2095464992962,59.8076357674643,21.461704174788,34.1940116966493,24.6019042128536,33.6226344774228,34.1240090824723,45.3672077029976,42.5942061163535,37.8490686778264,40.9028183871621,39.5679431872572,35.4802573172563,38.9627249863552,33.4123824080862,37.2455441999316,24.9862128613056,39.3568485445675,34.2067740275432,30.9123709029288,31.0476560513684,33.015489258142,49.4734173652224
14.2240935173346,43.9049820132861,11.3930706198677,25.6531998058956,36.4441725513345,31.377005087083,14.4509946028217,15.9795028833605,21.1626351293953,30.5660393068846,21.9029338710338,19.8510688775093,36.7681536625172,40.6570119163392,11.8875631465546,53.8997670001685,47.9033246550192,33.9469174714872,13.440894591887,9.79476648862921,31.7018419551441,1e+20,40.6376783071001,44.8690413884231,25.3736606395854,24.4161305536351,19.0031602900924,29.7788330187242,33.1087553422023,25.4800599826621,38.8031564803632,44.3883862222864,38.7509012587543,25.3009185912985,35.7504781384404,29.7571532963467,29.7201824418982,37.6955865872292,24.6666991402377,31.9010979485446,14.7555142408061,18.9526522441044,27.7804001049581,14.2143278924615,18.4222548853378,28.9597404344402,45.6003015505098,22.947946477817,38.7075637700034,22.4157614849913,28.8284720033528,30.8344768028376,28.0498571746089,31.5690021871746,19.4073930416654,22.2152668505705,29.2628673750506,18.7146015283456,24.196630495715,31.0904550678617,46.5480916012834,24.1966521075468,25.4874798600386,22.5642308421461,24.1701518737469,29.714825387837,19.6712168914001,20.5156252328557,24.3530514913936,37.4562647726239,19.2325895997092,41.5757724419529,33.1385538601907,25.7613789169848,55.8648986067878,25.866181457142,35.322422154419,32.6279980477778,38.1309034507619,24.7493112552576,12.0100521293784,39.3823351820152,30.7340824542735,25.7001822612684,10.7256915660838,20.779946772972,34.5898727496582,42.3440181046795,20.1111671604361,31.3339137964581,18.7278436527745,25.3187162648677,24.6102411983239,20.4686590165682,18.9515427122846,15.6331336219307,29.7114707159636,16.3076033045855,18.109182550204,40.6843662842657
34.2613108487436,38.0731380106989,38.8919776725426,50.0391942027392,12.4679318894749,36.7723576468504,33.1998284935538,21.87141147739,19.2697930871873,22.9780486111175,13.6658197644944,31.4987190061496,34.0597414815172,12.1555351917193,27.5763108064836,28.5938020986843,12.4663729273849,14.8071466381812,33.5850699914581,36.6090350081854,37.7579031698679,40.6376783071001,1e+20,18.1939529438606,24.4789803778955,33.1107064753412,31.1690003446625,62.3558006218815,29.1649532382711,18.4591101682008,17.2213064757295,15.9599369393323,21.124047498737,23.8253162048114,16.4417698660303,28.0870240087454,33.8081044346448,17.1190365421278,32.4268697639023,18.1338038694153,30.4637871900099,23.3630009446811,19.5285783683439,31.1998746742843,27.6325261104955,14.6592698212163,20.625335170243,42.4551233228527,18.5784412055402,27.426370810336,24.5360311914228,26.9878084031768,26.3279076218531,62.4223248133371,18.523680004539,21.8678190249236,24.9815554714158,39.3712938125111,15.6787156391113,20.7100743863864,12.3303989513009,22.9632850270063,19.9068091686842,26.7547974923478,20.2038815759512,42.1405922691711,24.1281068522885,25.974255680741,22.8815594640225,15.9845889284991,37.0248230490106,19.6491299030443,31.4163078871405,21.9896980759603,32.2042672485166,28.8202393100506,20.9272264655501,17.8041598230593,17.2428616532312,40.5816426593903,37.1894720543889,32.6773937900671,12.5061320788872,25.7287355441277,31.0544321583877,35.3269018079126,22.1409724019245,14.4103902775916,28.0591557109417,25.4263933667114,39.0795686039778,26.1568960616217,22.4660745885,54.6939222084485,19.7245204175471,18.4536616633712,21.293321903196,23.2469328884009,34.8553442418131,20.4075233774434
29.2450983904869,26.5516832670239,37.3399332093958,42.0512582155245,16.4816912030812,23.1218899802412,19.93053060755,21.7107351822545,22.2391762221892,19.5528556527701,19.5164050290405,20.283944687202,26.9045238862387,19.2506664620955,26.3953067722484,30.3943662813396,17.3428568345682,19.6866362277503,27.1949258428657,34.115955439139,28.3560798204236,44.8690413884231,18.1939529438606,1e+20,17.0753282727571,32.1555624196768,23.6037757541976,52.9072890032943,16.1724550676213,20.0366748314412,15.1782466184781,19.2350791878757,22.5321762549527,25.63887832754,25.4831980745249,28.0068216888563,24.3500300747928,19.5377685031394,16.6807713563861,18.2112579173187,18.8875685488676,26.2428722177803,19.0552872124319,29.6594520331455,25.4469651329688,19.6286087572409,20.4161336211006,36.8630518941726,20.5953662954942,25.8875316251977,20.3060528662092,19.7211456799949,27.3138083077483,57.2988942649021,22.6014291136436,23.3405652962468,24.3026169579588,32.0060637310739,17.2084503512789,20.119625651796,25.1036870902421,17.8079472529996,21.8096751528116,23.4467585388902,19.8889140566882,29.1920400375899,22.4258140923589,21.6843760962763,24.257152309252,20.8986074240652,33.6884573162828,18.9950339191792,25.4188141785877,22.9374746172743,23.6620365772001,25.7138831192108,16.7550178098288,21.8930171286368,26.6519363653442,30.0070347411445,27.0252702323766,18.0884316583706,18.4758763997421,15.3260681573321,28.2173097109292,36.0467892833285,19.9133733329273,24.9193252628313,29.2975631583151,23.931978310059,37.697988344535,26.1237149309675,29.7260997050127,49.3730220335253,22.4984800291858,21.5136673559581,18.4444893426172,21.4208873675253,36.2658372805033,18.8808087779961
20.9874815918425,30.8386364425942,24.0553038815846,37.9326830194352,24.2758945173872,24.1226307389257,20.5936433113751,19.1249798660972,18.660821146872,22.9636876150487,15.8355041865313,18.0616526068388,24.2849472555328,27.1268703508597,22.8410434341143,31.6772331916477,24.2501113174662,23.9997350422549,26.0379034231617,27.7074435563882,25.5026587830475,25.3736606395854,24.4789803778955,17.0753282727571,1e+20,25.0350301182895,16.2242548066544,40.3545584882741,19.9295723008519,17.3969447648077,19.6040535852009,24.2598439613032,25.8464811979287,22.3231755688699,24.726733560374,27.4191844960017,25.4654737843447,22.2204161837751,28.6752168025751,19.5259127179324,11.7816503521154,23.007961364255,23.6118871473101,22.7776671492381,20.6559266489626,18.9089621134095,18.8366269818604,41.1672732470304,16.0087227238152,22.3480232633133,19.091659188976,29.5299850313142,32.1015873735316,48.8073915405714,21.9093868235888,22.6339253527521,29.1722680220515,24.6420281669239,14.4281016510758,20.2020002640275,26.5191556938315,21.6281179585642,23.55322917395,23.2191087186516,15.7713544507716,28.2473282662771,19.8918990214308,17.0034049562514,24.777942267782,22.4702070119094,32.5180154786133,13.4651935817703,30.1412006601057,17.6338830550348,38.4388056978207,25.0793745013778,15.3132434319362,17.1145732418425,36.349175210465,28.8993364334762,26.3799080908619,22.6365308456149,22.4442419635965,23.0064598554283,27.0355768066003,34.7183182322939,32.2677854108231,24.3010024039303,27.3087505723402,20.3262405580116,34.1418038497905,22.9992865074917,22.8172568888663,40.0754383134739,22.4601631915064,19.0444012044295,17.3234338228077,14.1515636797558,27.0517053966337,28.6033125154357
21.5423990087366,24.6282965623067,24.0557394744633,26.9831537683863,33.7817889392256,32.4919316414468,24.6353704479934,32.1880892742697,31.5217252032043,41.2260023595825,27.6660252883093,21.0668167702167,32.5962890802615,32.7393218876109,31.7450536065743,47.6271779940462,39.4261006548834,27.5725586756598,25.1561278090098,32.4359358403321,17.6043094955834,24.4161305536351,33.1107064753412,32.1555624196768,25.0350301182895,1e+20,22.4188429062032,22.5592895208178,22.8547108552289,23.9036412581468,34.5140470572008,34.8134108897723,42.2569683146992,33.1975573398371,28.5382965917569,31.6663513882388,22.4739453924192,37.0080857496316,27.0157334987384,32.2313573120533,21.0311776210476,29.7925458659639,29.9796368537187,27.2223928855275,23.5817018449491,31.3389933352781,40.752636410072,35.1809051410279,35.3262697274831,23.6611480238081,31.8554359318405,41.9997805754828,45.2004185556003,31.4374024952946,28.9899877209618,30.4326694612564,29.7722424636934,21.0579488184618,27.3513862973303,32.8196277686373,39.5409857579108,28.272580680629,37.3559441766393,32.4800941975647,29.7493759219464,14.5386455783222,24.7260070378828,23.866456919418,33.4947203302945,33.6196289595932,32.8071101379781,32.4547985830315,37.3495202884235,35.4025347012307,46.1594204202084,28.5151111335849,21.7390371915733,35.0195147954593,41.3549597746946,18.7099176124772,20.0392804476485,24.6457082582639,27.7402066509287,27.9593967446735,29.3617066605143,38.1560936620203,30.1805055555771,35.7634545806485,29.2246196674678,24.2498400874228,32.7976837760471,30.6995700739289,35.2565394333777,23.8172568383991,30.7262823170271,26.0866090955612,31.3657816522967,26.6740509732983,28.997521833059,41.722078666999
23.6546062966301,40.9336489117487,25.0309282956349,34.3125231669324,29.6186629618461,31.7350054433351,23.8406589741958,22.4255176401189,25.9622756114807,18.5912893545528,22.465242807396,25.8667643097661,38.5754217466146,30.0855566254484,22.4320029469241,32.2357742618116,35.1791490512392,30.9694593737766,22.2947246557051,26.313994950399,31.9399086233381,19.0031602900924,31.1690003446625,23.6037757541976,16.2242548066544,22.4188429062032,1e+20,36.7672519099127,22.476552484545,23.404256594029,29.1416800031436,35.8004829273995,19.4917589186949,29.649006108795,30.9519127709944,25.0532561704761,25.8282210343653,28.2217298376211,34.1254850174425,25.0134921360319,13.9111672070228,29.714117582067,30.8768385995973,27.7793918858419,17.2899302537979,22.5855916910725,29.3294868118087,31.2105701169731,17.6072464789636,19.0468198819629,17.5292263311244,33.2764182417624,22.9547097142077,47.3905785849048,23.1646959590338,21.764252508781,28.5839874117156,29.6352790478187,16.1300435151983,21.3295117284581,32.156140484654,19.8998177369667,24.0009029108417,27.2214066525734,17.330913019663,30.38475307953,19.3329730011255,16.2782334988382,22.3667688397976,28.2696586034191,34.0301566738762,21.5455461735038,42.4343858842224,24.7165133310268,53.6851179178229,20.3662500780838,23.3722362095902,23.7223524601647,39.3791434475199,29.8720841400401,11.1241325198302,27.589651881046,26.827290515286,22.0598908517075,27.7554534807157,33.780373751619,35.1110103095379,33.4660606415483,21.2551351910488,21.9352342593729,35.492865849818,25.0688471828748,23.40331680077,35.482061473573,20.2994819190458,24.8441489217942,14.9801529429826,15.7715928957735,17.774388329258,40.7235177041317
27.3043953760941,33.4635365573773,32.4683518712779,21.6268770167554,53.416677803393,26.3927892821057,21.4806230010616,41.3598481911885,37.7442155991956,56.4747186327302,44.1696507501082,22.9395750057035,31.2985597086943,63.1111217867417,40.221671158577,70.7077585266508,62.334119787381,52.4236777478268,24.7451680836519,35.1382856734841,17.8558371453254,29.7788330187242,62.3558006218815,52.9072890032943,40.3545584882741,22.5592895208178,36.7672519099127,1e+20,46.4439234851728,39.4452083121905,52.3968100920953,60.3871281141556,57.8508778892379,52.6668341435768,57.0639881786559,37.8701080251529,32.0935023664953,58.9856226985338,19.1058118779515,50.843220791815,24.9015728367967,33.0219628897441,39.1039526165466,27.6362970027917,36.6513120771939,52.8213182571985,49.3941700260867,31.5325124034844,52.5864902972533,31.6125866040631,47.3201118058167,52.9242727849213,53.0360664269999,25.6157233136638,49.9339003492667,49.6804191224427,39.2490474648571,21.9506490903968,37.278477446188,42.5246681693967,68.916042818105,44.9425368971141,48.4632916585201,47.3609413201105,37.584002482127,18.2879554901711,31.8158412078557,41.2586682748241,56.0974626063932,50.354590370702,26.8974177655372,58.7948432385252,39.0994060301766,43.4812904064908,59.0794733022862,41.6685094739612,46.3821354714668,53.9801756522588,75.8100786405576,20.4697123313901,34.1288784502424,29.1625198682687,48.5412951532486,35.1400537276627,37.7758928296549,34.0136530102873,44.6062234859089,66.207232269123,39.7699330848933,38.1465227935462,30.3096223061893,33.3876116745834,45.3669387845954,18.6019168246418,43.9051100381984,34.6309187305315,44.7941549614048,33.4921092077824,47.2482913542274,60.4348094786808
22.2380850691157,33.0505266552276,28.6572196065654,40.1854560361853,27.9049230319449,30.4184737529635,21.1720241474815,27.5068826171263,24.9375890674673,29.8408165083253,21.5752781729514,14.6190735567208,30.5114123003245,32.5342446000257,32.3969724309118,48.6889316400643,33.1577837829768,29.0725185993817,31.9037686227449,34.4805621122813,22.9537863545078,33.1087553422023,29.1649532382711,16.1724550676213,19.9295723008519,22.8547108552289,22.476552484545,46.4439234851728,1e+20,23.1320279116717,21.0172771357362,31.7047541249413,37.115777254113,36.6188689859773,37.2458254671906,34.3171349226724,31.6053396836983,34.6162685569979,30.0384262945325,26.0392215825736,13.155137751734,29.2055501491956,19.5209272813436,26.4219941399967,19.0205376162984,26.3092088942138,37.1456462283531,44.3797297403244,28.1560806607617,25.6383648915472,30.307308697978,40.2356297366472,44.5304779728284,43.9151256178037,29.4754313184362,26.8547325186528,30.3180706664636,19.9527488425628,18.78780316318,21.7882131942116,41.3155020032873,30.0988314741591,32.3341531362997,29.6119589710964,23.4046364375677,28.8931612786775,20.817262001648,19.1058855140756,35.3816455800233,32.5842109719757,35.0156288791005,27.1751857170984,39.5516863063985,27.0540616474772,43.9429284053919,27.22944594072,25.7040882545144,31.0318040684318,44.9877957383642,21.629233075087,26.686515673626,21.9598201320836,26.3762402408353,22.0587542156395,28.9230878633166,44.1468140236888,30.6881810205163,38.216191680408,31.3433972420395,27.6976466652355,38.294422368777,28.5054543130841,37.4398553817503,31.2794863029501,30.0767422898669,24.2837424631165,26.8355993109746,21.5283738003862,35.0939146636442,41.3537194069631
21.0528884357912,28.3328600078801,22.2408885212368,38.0575155458045,18.5588435608257,27.573027629523,24.1359061673584,19.7815882075397,16.3827499219771,21.1176964153682,18.121222686583,21.3226823453931,29.8181608370332,23.5715036515915,19.5048812344804,34.6114312485899,17.5970128449722,16.2339956482308,23.6326828781219,26.0230754933738,31.5371742011016,25.4800599826621,18.4591101682008,20.0366748314412,17.3969447648077,23.9036412581468,23.404256594029,39.4452083121905,23.1320279116717,1e+20,15.4399970477301,18.3605357641263,26.0229834788156,18.0015211715159,18.7753871028609,21.6478057168917,28.6074264277143,22.9117027977646,33.0647199707304,18.0056923258721,20.1211171981117,27.9820143354748,17.5527880570168,21.5416564938671,19.9047489695075,16.3602953054444,21.4297706065662,37.6935956847992,18.899030463013,16.261652753359,22.7156477436288,27.5870920319149,29.7992593197778,37.968734342746,17.953315202755,17.2350132205301,22.6912178555674,23.8082406855761,16.0999022375278,15.446356068746,21.3269296068894,22.0239005800763,18.9907010798868,20.1169219729977,15.9992582453377,32.2944610808111,13.6155574760686,15.7262971434396,18.354520753733,20.8551702664227,28.8717566440387,20.1456100680146,34.8226695989471,15.53528981629,30.3331935827941,19.7864161881772,21.499519704956,18.6697465545958,25.1905278941912,28.3171392596918,20.972213761697,25.7666718802934,13.8548110717606,23.8207174858333,23.0297595030435,28.3554076503159,21.2791267509215,22.0644381515886,25.6381769124475,23.8761422735152,29.0048130278641,18.6182137021266,21.6537135000008,35.5413495127863,21.2877557413433,19.0527141388248,21.3247274068224,17.7387152247257,23.5606222804265,25.8699146066847
29.1570556592577,34.4125805484169,34.7286327592741,47.5463177618971,16.3127599949791,28.5261076207003,27.1308140761853,19.2597414768306,16.2847286863791,18.2355239223556,15.9436755564012,23.2419954154832,32.5664502497766,19.532319460933,24.2598958212924,32.6485396988588,15.2275398150674,19.1375030723315,32.7509276412732,32.1838512941434,33.8244845239079,38.8031564803632,17.2213064757295,15.1782466184781,19.6040535852009,34.5140470572008,29.1416800031436,52.3968100920953,21.0172771357362,15.4399970477301,1e+20,15.5136102265618,24.8591698565103,19.3241291884603,22.5695950823467,24.6050460422418,30.4008825227206,21.7102437981912,27.5231273531117,15.9736238105803,21.8404749791821,27.2653292010827,12.5606546298834,26.1453620075325,23.4252230958946,18.9818069746825,20.4521606619236,43.712000691879,17.8102782193935,23.5959684484274,19.6645648805159,24.9034853782951,26.4951395403135,54.6644494286501,20.0111571363204,18.8357170638195,21.7685778940635,31.6396026110184,13.036390889099,14.4624704227024,21.4223906388541,21.0832430204382,18.8601131719279,18.7437148011936,17.4993163148132,33.1966481139457,16.536082791627,20.5431675081377,20.0005925823698,14.9542635353035,32.7299281363518,22.7572798376044,32.8772184219232,14.5201429685546,29.4258963963808,16.437624629242,25.7116997476365,18.0010498697453,22.7542402823864,31.2585374991786,32.4086462881638,23.9984009523756,16.8312447919078,20.2912330604504,27.5644360792893,37.2532348306996,19.3980170775444,21.5385177588344,23.5334139527382,22.0899832327006,35.8971870435179,26.1110219322547,24.53851061,44.6190833766822,18.4843240719028,17.00337925782,20.339308793034,18.3651128417701,30.743807927806,22.0001528700846
33.5841295003998,38.4039939138318,41.1619793607693,48.4902264859816,13.6240590213542,33.6042167914465,28.9859630279748,21.6180927315784,21.1731481896923,23.7590290669131,19.3703206866619,30.4086194651039,36.3186512477031,14.0063833934654,28.7300315433996,26.1663074489785,11.9388926310841,13.9361121362387,37.1239997953924,35.4436137644521,44.8282847210889,44.3883862222864,15.9599369393323,19.2350791878757,24.2598439613032,34.8134108897723,35.8004829273995,60.3871281141556,31.7047541249413,18.3605357641263,15.5136102265618,1e+20,21.3522242924387,19.4717963698108,14.1641483552122,28.3503042666817,33.6148557458343,11.8937242928296,29.8527749418772,17.2401752178581,27.5030365563947,26.3115317757767,21.0986595872258,32.229119018894,31.8803697600387,16.6121165018697,15.8369691966367,42.064885389484,15.7731622183154,30.426815894363,21.9525342011918,22.863353832451,27.6304196642749,64.6641574225222,20.7425828043238,23.8802069036399,26.8158101458753,38.1880829186373,19.1122546386179,21.0094476972253,14.2619637381262,25.8083759175386,16.6247529137031,22.6188445310803,22.7901235171142,45.263434110441,25.4303290682012,23.4590783883027,23.4281068702928,13.3756716664971,37.6310026736709,25.57724346039,28.138007039501,21.7509637914028,25.5221080894691,29.9825388785479,20.6018065050057,17.2235944827883,15.8702562436723,39.6187868877084,41.2233042728874,30.7080701768503,18.0758903394736,23.4191019540396,31.8972852144053,36.5625876961852,22.3640067870428,16.8259943739816,31.8377660331426,25.5731135640553,38.4975462370075,26.5231978439137,25.3245684543381,53.8306768421011,20.261453514282,20.0362244647897,21.8403552341724,24.7643634505724,42.4135676284938,15.0205066935346
47.0238943477808,47.0154998031026,43.4013535639397,33.3697757491174,20.4534175173981,43.166063808731,35.6647530306319,25.2987900389389,32.1041572954748,14.1884562904969,22.6646425229543,42.1819259685687,45.7033769123376,20.2666420398562,25.5251903972396,12.4979729761293,21.1356291266681,23.809241650054,39.483010602747,37.9098516581504,48.5409427417719,38.7509012587543,21.124047498737,22.5321762549527,25.8464811979287,42.2569683146992,19.4917589186949,57.8508778892379,37.115777254113,26.0229834788156,24.8591698565103,21.3522242924387,1e+20,20.8789822235797,20.9786942524329,23.4544136878746,28.1730742338641,17.0002869584813,40.9586504037403,21.2921640863478,27.2130727035553,33.2286494870528,35.7344117005704,41.8669608880756,34.3031149637806,16.5814141192129,15.4953733909309,39.3714152971353,10.5840192424641,30.3866847280984,15.2075798406859,30.4525224191074,10.0859020758718,70.708030303504,15.4479277781157,20.3161976965858,23.3251397614877,50.0460748826016,14.1123909884212,23.9624227164509,17.4547106502463,15.9874580141711,20.1648846487141,19.8813790915668,22.5697266601127,50.3713589136317,28.9450658590911,21.6491145125004,17.7250152797633,14.2459773251312,48.8867807263212,23.4215128900308,41.2207998589444,27.0916697520266,50.9477975772629,21.7316276423322,21.2242882044212,17.7992712645677,21.2776995870112,47.1674167455095,24.233996866669,33.4166128050898,21.6057186703712,26.8880035909173,39.8291824470167,47.2965741904832,34.2865574306303,21.976062652613,16.2081837206366,20.1114213306544,44.8802432837043,35.9251063904106,18.0595241268889,57.0237436029605,16.3948019968134,28.6184839340505,12.1914476384592,20.8590506958567,26.394623736818,27.615446954673
30.5546311590086,42.7568098114612,26.6413712688663,42.0213560548379,20.2459905771094,39.3940633378044,26.1589981084459,13.970215636011,18.7559105711722,18.6154245319216,16.7465186652866,31.9632919869094,44.6839257584118,22.4142424873136,16.0742203021072,28.7706261413239,21.1315480857183,21.3279318096505,25.4866933094138,22.1821147377621,45.6333378230099,25.3009185912985,23.8253162048114,25.63887832754,22.3231755688699,33.1975573398371,29.649006108795,52.6668341435768,36.6188689859773,18.0015211715159,19.3241291884603,19.4717963698108,20.8789822235797,1e+20,21.9385416318845,19.2467378884438,32.4694952871315,18.3537046514558,28.0919730585218,18.3506113221509,29.0325499146926,28.6850426454685,20.145154363509,22.7288958673854,24.4701212530829,16.2350335473155,15.1478624861077,28.2894653781229,16.0521638797941,23.2598890336011,19.3002001647186,17.6429976448909,20.2885502236581,57.4573933795233,10.3395573592399,10.600468565806,25.8720376908472,34.5520637557012,13.9542858851814,17.6081209953757,25.6067996664403,20.5196643995164,14.7972663502409,9.75616307293894,15.0081198539055,42.4849022533726,21.0853451341611,17.7633140734947,12.364381906386,15.2946759994179,28.2973662413001,25.8297656526123,31.997092647894,17.108180506437,30.690929876253,20.6052438546339,31.031169501692,16.370479567897,19.4991093819383,39.1837053668734,27.1030352748494,35.4618998625076,18.498439207013,20.1120971053294,20.8973270599615,28.7954903371496,24.2218004641918,22.5501889548772,24.6239280803565,24.5438199716408,28.2756917425367,21.1784640667827,13.4342617436723,46.4204800949623,14.5449910629498,15.0834024270991,17.1466352366714,15.5092343519778,25.3238895845901,19.1082914817573
34.1625291281518,39.2453931269449,36.1106388983312,50.8146898542437,17.7784711924985,40.2525987464385,31.3568581116709,21.9127180912663,22.1549475503922,24.4779237041583,20.2978526394999,33.6393983307033,39.3731395696773,15.8462570204912,27.5092058692717,24.8484802277392,18.7511591516461,13.5812997016496,33.6303843319812,33.8908539554698,38.7814053735464,35.7504781384404,16.4417698660303,25.4831980745249,24.726733560374,28.5382965917569,30.9519127709944,57.0639881786559,37.2458254671906,18.7753871028609,22.5695950823467,14.1641483552122,20.9786942524329,21.9385416318845,1e+20,33.8363322308254,33.951603063564,17.3262798905314,36.7763731969113,24.5810518649314,28.2797153858926,27.6415002100529,24.8695472943962,31.5722854743187,29.3292199020655,16.7144625116241,20.6521303579777,40.6289652068757,18.6430252833002,28.4042879905194,27.6893947052456,27.7350158838351,24.9684143250216,62.7528617425466,18.6528470123397,22.6784814095107,34.0142727950011,39.1117768919082,18.821659006549,21.5790458288641,9.98420245004309,22.8922969617389,17.9704569635415,24.1448921917987,24.8294584053629,41.0841014260273,29.8346865319825,22.4669466933693,19.8966938140722,16.0078409799446,39.1204043167891,23.6114221745009,30.4884090909734,22.7468812157641,33.2210260262069,27.5761376324376,18.0989627584453,22.7135986752972,14.8296285230665,41.9859527952408,40.3107734448812,33.5003047904425,18.9318739640736,30.2561216915611,31.910478713555,35.0269241536942,28.4601877527475,16.4606402926109,34.9934859772235,25.4490582815862,40.2754706072647,27.4600038192965,22.7762316950491,52.802360165795,19.5286247229837,18.3518802194065,22.9651496896304,24.2209799395574,33.7868121768921,20.9285343767503
29.451601817116,34.4411495736247,34.8449067117777,35.8753226211964,24.2619236029353,30.7700221168275,24.5685510737019,19.9327149481055,18.3099344166841,17.5142757143626,22.99152815309,31.8409033605485,30.711471047346,27.02955495778,23.8863381248086,32.8246805804799,26.7829297632793,31.1903998032235,24.4143052581174,30.2055428968185,33.4436681632192,29.7571532963467,28.0870240087454,28.0068216888563,27.4191844960017,31.6663513882388,25.0532561704761,37.8701080251529,34.3171349226724,21.6478057168917,24.6050460422418,28.3503042666817,23.4544136878746,19.2467378884438,33.8363322308254,1e+20,30.4329638106504,25.3462072396194,25.8842887551045,20.3425036485077,27.5460762486834,38.5184219815852,20.6879723180793,27.9962799359699,21.7065284329002,25.7460086623132,18.6237471901014,25.7319228469195,19.267787641367,26.2671038722532,15.0912962276521,21.7002430781822,21.5086286040972,37.7043535447245,19.0397284396714,18.7462061388202,12.3104001875898,34.2206418408761,15.5115269933171,22.8993058013617,32.5914370866795,19.050766577393,26.1176135962518,18.6388535886158,18.179475032377,29.2276463913116,17.6543190931424,22.8603023012385,18.1287846529145,20.1700374589443,32.7277543064319,36.7668641889023,41.1191884304226,22.7101499699096,38.885911010824,17.6752671395809,30.957228406371,19.2473611631952,33.9811351791993,26.8923633786148,25.0724541511716,30.2678229167508,18.7778390724493,18.4744572888892,27.0691709393932,25.8706857457271,19.339972078891,24.0977757417649,19.7583209174444,21.0875829244959,32.1507142858168,23.3695663727351,20.2895475810942,35.7854450783378,19.803492364391,22.7939828144348,15.0113455813706,19.1552945476595,26.798652805181,29.1846586566275
26.0720363584829,26.1292334904121,28.0669478301226,28.2514868679154,31.8758121128717,34.8143966035522,26.7865606610314,29.0364666084651,31.6599814614286,30.0507454131334,27.7210506820719,29.936073170254,42.9789726731594,32.5821853332009,30.69472898715,33.9727513071157,33.4266287407141,33.8102572719344,25.8339748823287,32.0027574086758,32.5348087486271,29.7201824418982,33.8081044346448,24.3500300747928,25.4654737843447,22.4739453924192,25.8282210343653,32.0935023664953,31.6053396836983,28.6074264277143,30.4008825227206,33.6148557458343,28.1730742338641,32.4694952871315,33.951603063564,30.4329638106504,1e+20,29.1174680027397,26.5605517910206,31.9081830228818,26.304442590146,27.666519931456,31.4940374671151,29.0898598958178,31.0136187798857,31.1342784720191,31.2996470102731,29.2568325369885,28.3452376422627,27.6165447514788,29.7601288674967,29.7214488073589,36.6790258543627,43.7201678994048,28.6671543047523,32.4644790388776,31.9760885649131,29.2259167952692,27.0666115672054,33.1090294743048,34.9995179680752,24.7733516655645,32.3622820734217,27.6167991684381,28.6354947915641,25.2772401749906,30.7278685163698,24.2244962851126,30.4976897805681,31.4933182688637,33.9218887025272,30.5011650337153,28.7279250128766,34.0648843457621,42.0577688755242,35.359257664769,24.805049919405,33.0803702204173,36.5962667742938,27.3622542741679,26.1175185527621,17.7329707747979,30.2838268888003,27.8592914689496,30.3605073549143,37.3250752470384,22.1243406296357,33.5106012413324,31.0480319557576,22.174204017061,32.0218800825215,33.4123921414115,30.4501889701816,36.5415528379102,27.9991825789227,25.7216987859602,26.6937018786311,25.18553184095,32.337399489966,33.6903352487591
29.2278603907973,42.1810651398263,36.3578361765224,49.5324558804439,16.6552628362788,38.0475171132122,23.5018953529807,17.4415700825134,18.333260168053,21.0088562331081,17.7410843628361,29.9440750321,35.390054500211,13.0613504976275,24.7350402898692,20.9541232122356,15.7603255147485,15.4023486841024,28.7328854751905,30.807650585857,44.2948987183735,37.6955865872292,17.1190365421278,19.5377685031394,22.2204161837751,37.0080857496316,28.2217298376211,58.9856226985338,34.6162685569979,22.9117027977646,21.7102437981912,11.8937242928296,17.0002869584813,18.3537046514558,17.3262798905314,25.3462072396194,29.1174680027397,1e+20,26.9241877991858,20.1335380361952,24.6550847485243,25.4017206449212,26.6828740893135,29.2566792141903,28.3380198878164,13.4567808832119,13.4103349437326,34.472509887087,12.6908707242693,29.8781053938087,18.7820696316949,18.0279958043553,20.3793817035591,65.090046398197,17.2117540143385,20.1754833368601,28.1165026235632,38.2615361224504,16.8381774037288,22.9727670946546,16.7046402492053,21.7200710747285,14.8512560188146,22.0024356860966,18.0751522174827,47.5901381690903,26.5665859128085,20.9355247743844,20.5024174929513,10.6830039176715,33.1290235488851,24.2697116351197,25.753781270475,24.2612994737874,34.531621308161,31.7023131187808,18.9997994024144,17.8574150240329,15.4199255243346,43.4178328514647,36.0574602096919,30.1727562127282,17.2441912718503,21.1985658692381,27.9195815978307,30.9433123406667,23.6285081971291,15.5708989881498,32.0507116094208,23.274223047599,35.6169680644608,23.1025739911182,16.0266966391362,55.9404454095306,15.7242173999501,17.9500462867673,17.6051282818536,20.1722797546278,39.6263552065939,11.6751176777307
17.7204260844889,32.3772220389667,25.7941351633265,15.2797107441951,29.8671636802598,18.0973474821995,15.1378214360187,24.0189902670912,24.5561430545724,26.8528962241603,29.4252883358618,17.5270438346662,22.4610155849785,29.5089653892948,22.4036142961389,43.3701334468039,25.6800619599069,30.2455109675988,11.3529718712978,16.6963737713864,24.1383890831866,24.6666991402377,32.4268697639023,16.6807713563861,28.6752168025751,27.0157334987384,34.1254850174425,19.1058118779515,30.0384262945325,33.0647199707304,27.5231273531117,29.8527749418772,40.9586504037403,28.0919730585218,36.7763731969113,25.8842887551045,26.5605517910206,26.9241877991858,1e+20,32.9420182006106,20.7957172628643,18.5606433220375,25.3191681466101,17.4615496298055,27.5610856302261,28.0825826280638,25.2818556701372,10.3861229179359,31.811935505125,26.1269471445203,29.9351194475923,20.7262773997999,39.8740581907916,23.8366060671347,27.315567232245,27.2409373164257,32.647621913666,18.6528008912726,25.9286066098218,27.7163938237409,39.0480158571054,28.0065462720836,28.8886754133073,21.31704659,27.7775679167365,25.2476256106723,26.9224599661568,25.6231960086203,30.5062796384042,30.5674277867163,11.7093287970184,40.0305634539985,16.8812673323901,31.3894231780292,34.9269402953168,32.6350216374313,26.4401976679551,32.5052463247927,34.6342913494962,15.5062049142602,25.5996260064826,23.7334538009331,26.5541794934062,14.4524863469201,21.084450887113,18.2579310243664,33.2717105139273,37.6138968054379,35.5036030901827,35.251678618447,12.2007633095913,24.4390443361775,27.9019898923658,17.464865998175,25.425822095857,18.7974418571561,30.7954732798284,25.7033034977612,43.652734914911,23.6728060407846
30.544198153793,35.0528742771636,32.1382788815099,47.7447071439015,13.3199877205387,33.1965065490035,29.3094159500124,19.9908557923966,17.9672474317993,15.8661177909027,22.0996202288936,29.3669311910133,27.8874288169898,17.245232896251,27.3356924313417,30.6454375014745,20.0169490082326,23.0137051782229,29.0722366749657,32.0576237992397,39.7210750872803,31.9010979485446,18.1338038694153,18.2112579173187,19.5259127179324,32.2313573120533,25.0134921360319,50.843220791815,26.0392215825736,18.0056923258721,15.9736238105803,17.2401752178581,21.2921640863478,18.3506113221509,24.5810518649314,20.3425036485077,31.9081830228818,20.1335380361952,32.9420182006106,1e+20,27.7003832627737,32.8754422097636,18.6068706005681,29.5071912624601,18.9492552752225,12.7316774879533,17.5232483405572,42.0164664635946,12.9401213669676,27.5678643086951,21.7791228327399,22.7725091901026,24.2766505306993,44.0655895856794,18.5898442214027,16.317763184135,17.8139144073049,40.2569713619029,15.0866287672712,21.7224564207473,21.2992373204323,20.5634306589109,21.3433601735995,19.9200155995011,18.66623602153,37.6746396417394,21.6804088064853,22.9527870973073,17.7141515774872,18.3868350453052,32.7005649940167,19.3181837657939,39.4056618938154,21.0666128128087,33.7127785595779,16.1572062692407,25.5623328860154,7.12663237544758,22.4865187051892,39.9465257305539,26.1451582559661,26.2396366223897,21.448238449804,20.328146297728,26.7215681564369,34.9073653745365,20.088083119054,14.8409616649622,22.5115676585436,20.2295009389682,41.0567840612543,24.3226063601505,22.7514649102445,47.6323860161669,21.6345717812536,24.9731852076725,18.3257653606155,22.3152587576504,29.0883426194245,19.1215114594118
8.63689959939696,30.2878755701015,13.7727361937168,20.8709749067285,27.0813487105733,19.4783736605556,10.1343900915877,17.7825334571522,16.6116484693883,23.0294544709449,16.9370571109793,7.40440524116149,24.5128253141707,30.5264953406802,20.8617069163197,33.0347303582502,29.3489369633147,27.2550030515968,16.3469919875582,19.2869174400199,22.9467544867488,14.7555142408061,30.4637871900099,18.8875685488676,11.7816503521154,21.0311776210476,13.9111672070228,24.9015728367967,13.155137751734,20.1211171981117,21.8404749791821,27.5030365563947,27.2130727035553,29.0325499146926,28.2797153858926,27.5460762486834,26.304442590146,24.6550847485243,20.7957172628643,27.7003832627737,1e+20,18.6402025267868,19.410450413583,14.4932218639039,13.0783994252168,22.7284467343905,22.6760606857475,27.1181494442767,19.0545079911121,14.9097131854086,20.4618489937945,27.1115738510681,31.4458536435981,29.2467040309541,24.6478711282229,23.3717741033457,29.6339998979128,10.1864821051909,13.4092711904357,16.8827117358248,33.6391823967376,24.1302413620825,21.3659640656963,23.07081111049,15.5843387163841,24.0996937454053,17.1610391850933,14.9986292998705,27.0324652263858,24.7486192092179,20.7720228927509,22.4938418041615,28.2466811120588,19.2534076345019,38.3161944647993,20.5446829525612,16.972305704401,26.4596034075665,39.9065620591765,13.7928533954919,18.5900259679068,18.3409540985727,23.8359454002125,16.3119856192617,18.6289655703328,23.0338761057836,30.5660286363562,33.06611111566,24.5308132356875,25.4744315099492,21.3293850113851,17.6126151519023,25.6848903264635,14.4032184585996,19.0159377310364,15.3770783127391,17.5631000791891,12.1594063331998,24.1334217026069,32.6230510143094
16.7917581887064,36.1955345200732,16.7550252449525,22.4684035032515,25.3633303049907,26.5212098922574,16.4600899893347,22.5353059672345,20.9399428912048,28.0221226257156,22.6422772175029,18.5723360247703,34.9034583089322,27.1314163437767,17.6963062484902,38.1458045042717,25.1773147755117,25.1480672346037,16.1303651253242,14.8186824559355,32.6475675507797,18.9526522441044,23.3630009446811,26.2428722177803,23.007961364255,29.7925458659639,29.714117582067,33.0219628897441,29.2055501491956,27.9820143354748,27.2653292010827,26.3115317757767,33.2286494870528,28.6850426454685,27.6415002100529,38.5184219815852,27.666519931456,25.4017206449212,18.5606433220375,32.8754422097636,18.6402025267868,1e+20,22.3898325216283,12.3458410516196,25.1354028332492,21.0761839606975,28.9396899704054,22.8484708945717,30.3217623496914,20.9049662889376,32.3346856400677,24.3985418213035,37.5155160993326,31.856000953171,23.9159617502263,26.4329111907918,41.5614804707332,20.4948067767246,23.7435852753847,26.981274528155,29.0462756154545,23.9632585748224,26.1702340378512,21.4568842838996,25.4734516072324,30.2508673935674,25.4564994798094,24.1971696083414,27.9238853660234,24.9600601254507,20.6618102252407,29.4974845313289,13.743920413207,28.8396436457932,41.6512190495378,30.5395567315841,21.1726883266438,31.1206248209744,26.4617908087439,18.77379556055,23.047881664918,26.5828402364475,21.8433380491112,19.2848775097054,16.4627079655318,22.1864334115021,31.5807857815932,30.6901640929552,29.5919309663578,37.133308687213,14.3068612656193,23.393915909522,26.6829300229676,19.7762364394363,21.1080602417783,14.9154658461317,33.783543188249,19.4583420455359,29.988919175913,24.0065919484719
20.5167562502961,36.2413851226821,22.6216916924998,30.2206760842831,18.4057806921756,23.575122490458,20.4069526429489,17.8664618478676,14.8934456299359,19.7550923648484,16.7626243290062,17.6291718148661,31.8990315569869,25.0842987375929,19.4307557497128,48.2752174567804,20.5695163880108,23.5152475207817,22.9466491379503,20.6704276777283,32.1612170627644,27.7804001049581,19.5285783683439,19.0552872124319,23.6118871473101,29.9796368537187,30.8768385995973,39.1039526165466,19.5209272813436,17.5527880570168,12.5606546298834,21.0986595872258,35.7344117005704,20.145154363509,24.8695472943962,20.6879723180793,31.4940374671151,26.6828740893135,25.3191681466101,18.6068706005681,19.410450413583,22.3898325216283,1e+20,17.5403243373175,16.9325629984873,20.2176578867499,26.539831280419,27.8892254272642,23.6116093853643,19.0319398232861,26.034964810947,26.1781526579991,36.2264741049614,33.5262701420015,19.4466188262862,16.7005192260748,22.7997454680698,20.9684190069333,13.3869377116896,10.0685647501612,28.0987246653623,22.8861211701273,18.6921208063213,17.762647928519,17.020941582304,30.4868910116179,13.9676295056857,19.6830646156803,24.939089618346,21.0977021787852,22.9120874620539,28.4339569272548,32.9168481816702,18.7471441373751,32.4952754257749,14.8645954518937,28.948001466365,20.2094827464781,25.4953490474682,22.0565853440138,26.7584904989936,27.0477919096513,18.1800577412549,17.1747176645763,18.7887142835441,26.6575180293713,21.2888374921162,23.3468086044843,27.3706397835111,27.0947180472836,22.23824565693,17.7648482276022,28.8867570273334,25.1267332126853,20.2115947607305,15.9224197619778,25.5043697384927,21.6403762109805,31.4688626489871,26.6914442686846
9.96829008972183,39.569489436606,10.2333209343848,18.8141281429361,29.9637319379611,24.7528428723874,11.7559866292403,12.2750876523666,15.8045145648484,26.2494707865122,19.3869633266366,14.2537117441458,36.4005526758152,32.6903583299575,9.05629904703133,50.16675916219,33.5625824217828,28.3454659123328,11.9168446533589,7.59001906911071,35.563334150589,14.2143278924615,31.1998746742843,29.6594520331455,22.7776671492381,27.2223928855275,27.7793918858419,27.6362970027917,26.4219941399967,21.5416564938671,26.1453620075325,32.229119018894,41.8669608880756,22.7288958673854,31.5722854743187,27.9962799359699,29.0898598958178,29.2566792141903,17.4615496298055,29.5071912624601,14.4932218639039,12.3458410516196,17.5403243373175,1e+20,14.2549041624501,20.856695393547,36.3051342858515,17.8998770346238,30.8063096890829,15.4269523021978,30.3938718174938,19.7115666296891,35.7682588913781,28.2841692780742,18.7138054825795,19.3824712467973,31.1733933081132,14.7630802947405,17.6620189581783,21.5096024041034,40.1367158476928,20.6734658438188,19.5079396783213,17.8398608285202,18.2135673499142,30.039352139256,19.7991123085602,19.0816803990978,25.4874680270236,28.3929411964102,14.1272052674167,34.7614570227757,22.9134414786103,24.1360098800516,40.8583662066237,22.0515227737768,28.6018461443946,27.5385221885133,29.6398799870212,17.3740392714815,16.0355107601197,28.3659062660978,25.1542457331608,15.3874750517039,7.63610720471055,14.4915387920673,25.2953761587441,36.0843412014852,21.5878761473562,32.439112221756,9.85177303996022,15.4800657240497,24.4799487368847,14.0097362434217,16.1747764661355,10.9802412347164,33.1847857657662,15.0647117074596,28.2448165666264,27.6624437213941
13.4457012333195,36.660817420781,15.6335904122116,30.0768037185429,26.9931695524911,25.5335320787617,17.3329260532967,13.1353006182107,15.5343661130711,19.8391408511572,16.7762671720283,17.3810040840674,27.6877019812514,27.4313609612086,13.3709540444049,49.8242378187928,35.3268788714175,26.7051520910218,16.4253568776483,16.3112159125818,26.968199888411,18.4222548853378,27.6325261104955,25.4469651329688,20.6559266489626,23.5817018449491,17.2899302537979,36.6513120771939,19.0205376162984,19.9047489695075,23.4252230958946,31.8803697600387,34.3031149637806,24.4701212530829,29.3292199020655,21.7065284329002,31.0136187798857,28.3380198878164,27.5610856302261,18.9492552752225,13.0783994252168,25.1354028332492,16.9325629984873,14.2549041624501,1e+20,17.8737383012405,33.4257152042507,27.3793673528667,24.3353322123808,16.175332995856,22.0424506278672,24.6860111752317,32.0196517229639,35.4392100279287,19.6028255447798,16.418146077409,23.5765698085826,19.6992713992543,13.4027495413724,20.5674278230475,37.8938604278601,18.3612487240114,22.4347158888478,21.6342224585195,12.5927581009201,31.2386468957685,12.9034256951538,18.300410145902,20.5782356177988,24.3410800567593,19.5909321518483,31.839340012888,33.0090282411011,22.2456675842144,44.2975980668099,16.738538971485,25.3125900307821,20.4210692758893,30.0013670621713,24.0932447819808,14.5580568144403,26.0212263694761,23.2480362361327,16.7958216315036,13.1314980010416,20.5582203381413,21.1844290795871,29.1247737247279,24.4289315397123,26.1586093413918,22.2066135996846,16.7950620056596,23.3643849470176,27.4623093086425,17.4498657038231,14.954996734583,23.1183686852381,14.7184649108512,24.2126730384245,31.2796840221579
23.7631218862729,35.6932817831491,27.0965522202674,41.2764031598723,11.998258273465,32.6558419112174,23.8959616179506,16.2816465149354,16.5457119920854,16.6415526604905,16.3707856952083,22.9237462389948,34.3557330207847,15.8041346095801,18.7747776347059,24.3034121426163,16.3642361110833,15.2772343145427,23.0992268545523,24.3435174340354,40.973127681927,28.9597404344402,14.6592698212163,19.6286087572409,18.9089621134095,31.3389933352781,22.5855916910725,52.8213182571985,26.3092088942138,16.3602953054444,18.9818069746825,16.6121165018697,16.5814141192129,16.2350335473155,16.7144625116241,25.7460086623132,31.1342784720191,13.4567808832119,28.0825826280638,12.7316774879533,22.7284467343905,21.0761839606975,20.2176578867499,20.856695393547,17.8737383012405,1e+20,16.8422101794261,32.2084863542178,13.5288457593759,23.0140678550119,21.1941749706663,19.8629141495379,21.4115778520277,56.6240568393852,14.5765241697884,13.908661798198,26.526763649381,30.6753380183286,13.6220180144722,18.5133585790714,14.4032991461667,19.9613096203712,15.4651592922716,20.5348425723214,17.4483248285043,38.4078485366271,23.0633635588081,17.7387591880073,15.4334798640257,13.0315551066562,28.6242929645007,18.9106504719173,28.1858901879398,18.1019577705205,36.083402935721,19.2579549025638,17.7330938790851,11.5670152658402,14.849161079676,33.3906389988733,29.6283027692121,29.0312975336661,15.5366753655409,21.5255386835397,20.6483846295461,26.6645537595112,21.1983006172516,14.2147120845299,28.1850761854953,20.7789849428485,30.2591574768086,19.8265713814361,18.9491394158608,44.20401093523,15.4249340640119,16.3785569652745,17.8459145923633,17.0188343678773,27.3636908607419,16.5876521884587
40.176457902235,39.4323485698276,47.400498000558,33.3132760180575,18.9192022980336,32.3304377558823,28.1128339123401,18.8098434049453,18.223391253919,16.0802790097328,16.8877394992586,31.6333404902982,29.0602633047732,17.6391410143684,26.9362536837381,16.4791644854859,16.5019861414331,21.5843523475455,31.9791868145278,37.4993214031829,40.7112782145722,45.6003015505098,20.625335170243,20.4161336211006,18.8366269818604,40.752636410072,29.3294868118087,49.3941700260867,37.1456462283531,21.4297706065662,20.4521606619236,15.8369691966367,15.4953733909309,15.1478624861077,20.6521303579777,18.6237471901014,31.2996470102731,13.4103349437326,25.2818556701372,17.5232483405572,22.6760606857475,28.9396899704054,26.539831280419,36.3051342858515,33.4257152042507,16.8422101794261,1e+20,40.5095622818414,10.3393203878165,27.4526830211884,16.009890390251,17.2292427142744,15.2249548536491,61.4770284047244,16.2202750062685,22.3168740843909,23.6277032535069,43.7939991038179,11.5251636550256,23.3032076604136,18.3925932972225,17.3464209372179,14.0388727817285,17.0392493079469,18.5018450272482,39.7542768911605,25.4414353133601,22.429694325933,16.2515931146319,12.0664250194514,44.2756293604716,27.1380382623446,30.9839287164807,17.6186149010697,29.4533568234509,19.8949831017395,21.0048654572351,14.9508987729632,21.9147557930161,43.999139093172,34.149612331096,26.534006178192,19.9287920310662,20.4999215473184,37.1264876945155,35.2012588464461,26.6526324564978,20.2417443607498,20.2527439440137,20.7840144643883,39.7405665225052,28.6868975091585,15.9509136766502,52.3091720283428,13.6127024708652,16.8686043960249,12.0572675761287,16.973542726882,37.0177491791427,18.7837708689193
23.6249223439945,51.9396359749687,24.5764278111112,20.6344777537077,41.9366642787685,31.8717938098502,17.2124132023692,21.836968512132,25.1703140408672,37.4197474835209,31.9907464544219,29.8291021658581,45.3598831036133,39.3275067726068,19.541756185021,50.0455004044285,42.8830347453499,38.9888303377789,13.5878188521234,15.0520393016143,42.4095265526285,22.947946477817,42.4551233228527,36.8630518941726,41.1672732470304,35.1809051410279,31.2105701169731,31.5325124034844,44.3797297403244,37.6935956847992,43.712000691879,42.064885389484,39.3714152971353,28.2894653781229,40.6289652068757,25.7319228469195,29.2568325369885,34.472509887087,10.3861229179359,42.0164664635946,27.1181494442767,22.8484708945717,27.8892254272642,17.8998770346238,27.3793673528667,32.2084863542178,40.5095622818414,1e+20,39.3470946781202,25.7923831303995,35.6949559976116,22.1426128894001,30.8396993441262,39.2210019880817,27.5193469606757,27.9650645831649,30.8468987106181,28.9612131022977,30.6838731268428,31.9606429064309,51.4100715509509,30.3460973743895,28.6454022784265,22.1325403318152,30.0353982149395,35.9293968735336,28.8453716140115,27.1387179421426,31.3255760308685,40.3819536447691,15.7287014584689,57.3305336998679,24.7020199164108,35.9177616521557,45.524334137395,35.7227609162975,40.236034837766,39.5025850918023,37.8723750358971,28.2341664737421,22.3484454557502,40.2878760819161,35.9544525205767,16.7132134401212,19.3013157066439,16.4554975299911,37.094092852957,45.6159284238248,32.3139456338451,31.542501742868,13.518553099529,23.7525923723241,26.451880743088,27.0308204114397,21.4186105426721,21.5589254567737,31.9954193469185,26.4137941741151,39.476919707457,31.5116659593773
29.1553701718921,41.3065047607688,36.034828919503,40.8191590154293,17.4447855541488,35.8224560612435,25.6541027799199,15.1189713400219,17.6239920571473,12.4047244162865,15.5650831711571,29.295757413052,35.5290687463454,15.2115853292996,22.6426972810946,16.5031236784998,16.5606685546909,19.5624332251334,29.1288146061082,33.7093572000611,40.2639270202406,38.7075637700034,18.5784412055402,20.5953662954942,16.0087227238152,35.3262697274831,17.6072464789636,52.5864902972533,28.1560806607617,18.899030463013,17.8102782193935,15.7731622183154,10.5840192424641,16.0521638797941,18.6430252833002,19.267787641367,28.3452376422627,12.6908707242693,31.811935505125,12.9401213669676,19.0545079911121,30.3217623496914,23.6116093853643,30.8063096890829,24.3353322123808,13.5288457593759,10.3393203878165,39.3470946781202,1e+20,24.9606661964073,12.2930733768723,21.0706170959097,14.755764830047,69.3289706135238,14.1011433662328,15.62753530922,24.7767367942383,38.4654993193985,11.5884344486123,18.5990518367478,16.9886002757958,16.7865562221604,12.9473958893701,19.4875047737333,15.9153736813198,42.1342446644517,21.856597337701,18.7943740016897,12.8350996117433,14.237241057374,39.7500817639881,21.7713198875699,33.324901325502,18.505332812003,38.5702997064421,21.1758052823216,19.6929781756615,11.5964153742066,21.1431965339951,43.9908536701556,27.8745600832375,26.8680431799963,20.0389175483055,21.0406168307151,28.8589387634808,33.3667735465328,26.1254747961047,16.2161164100956,19.9510919901516,17.6334053882128,40.9506952930177,23.9399150215923,17.4583938154063,57.9251886330605,12.5887353285184,17.9350642201772,11.6333759665519,14.41487181257,29.8825659658729,20.7655407193714
15.9011446278087,34.4313797880763,19.0403583389724,26.8824494947744,27.1318690949125,17.2396136152008,18.744092063098,16.8745752147442,16.1435979590401,23.9748714893873,19.631225140119,14.8200309276951,26.48981708672,32.5073799474785,18.5222356402332,36.6344782833902,28.5787901511429,28.4493398523761,16.7288367790148,19.3526117617857,31.1199973269416,22.4157614849913,27.426370810336,25.8875316251977,22.3480232633133,23.6611480238081,19.0468198819629,31.6125866040631,25.6383648915472,16.261652753359,23.5959684484274,30.426815894363,30.3866847280984,23.2598890336011,28.4042879905194,26.2671038722532,27.6165447514788,29.8781053938087,26.1269471445203,27.5678643086951,14.9097131854086,20.9049662889376,19.0319398232861,15.4269523021978,16.175332995856,23.0140678550119,27.4526830211884,25.7923831303995,24.9606661964073,1e+20,23.7484714893523,24.4325843873291,26.873936116348,28.5718573282271,24.0412085223771,23.5549440219262,29.7225030584004,17.3609186921627,17.1969812040533,18.0805984354478,33.4415289872848,23.4429988908844,17.8777179091413,18.4689697929102,15.4826863286699,29.6848606961893,15.2501277842334,16.1022170408504,24.9149149797304,25.6596781239276,20.5602093860326,30.3627209051398,29.9121441373902,17.1786692243467,28.4748595269388,19.7432132038476,28.2841976808462,23.1006840211623,34.3230969060948,17.5460501335179,22.3735541557933,26.573307690228,20.4909791688273,20.7674501043301,18.7500876598656,18.4937079938512,25.1662482958045,36.2192936259787,24.6399298310657,28.4932791071532,19.462097697367,17.374582088132,17.4050959977195,22.0679356008769,16.9597293791547,18.2130350872679,23.9556709207951,14.2682007375051,15.911143342417,31.1541249745492
28.9489077366037,44.8687472290769,31.5630328352425,36.0652902020251,19.422095817803,35.9606867704732,23.9713492000036,18.7127625922465,22.3298582614278,11.9508773489901,17.2824951730963,30.4523186757294,45.795025293246,24.829181482998,19.6194873083453,23.8065682001079,24.6437642710718,24.1646533695319,25.985567620542,29.2324989765369,44.2935791132167,28.8284720033528,24.5360311914228,20.3060528662092,19.091659188976,31.8554359318405,17.5292263311244,47.3201118058167,30.307308697978,22.7156477436288,19.6645648805159,21.9525342011918,15.2075798406859,19.3002001647186,27.6893947052456,15.0912962276521,29.7601288674967,18.7820696316949,29.9351194475923,21.7791228327399,20.4618489937945,32.3346856400677,26.034964810947,30.3938718174938,22.0424506278672,21.1941749706663,16.009890390251,35.6949559976116,12.2930733768723,23.7484714893523,1e+20,23.1577912929722,17.4878008539116,60.7825919184661,15.1905116203084,17.8727477009033,17.196365000902,36.1923883117942,11.7664599226531,19.6954986295606,25.0602646548816,13.7591014145643,17.8974411670131,18.2151168403971,17.3350574836558,42.1433633617464,20.151956243079,15.8118342131693,13.7591875143047,16.6972009111373,36.7693110770707,25.2400962823506,39.7354240126712,20.6187451207584,40.911992562881,21.1816622738578,26.8151142535562,19.0171612322518,29.1892080153629,37.8131969563797,19.1826463035335,29.6918116581131,19.9227902258321,18.2879195701329,26.4864767318954,31.6143230947817,25.3485455378721,24.3577035726998,16.3695502161419,14.8775333284661,36.3442695128501,25.292795014062,22.1785800842251,50.1354694413009,15.7775795236658,19.394491298104,9.14641775513769,14.593859754239,22.3765270990673,30.0144868415609
25.2698517783716,52.2477488914471,26.65409050178,36.8953261192867,27.2008999679462,32.2174535785038,18.1301542571492,15.644097100289,18.5443651686066,18.1861135598682,18.7250011113665,30.8091314984586,47.1723320489937,25.1926212056115,17.7738571650516,39.4168583706369,22.4600578216916,26.5339129107464,22.3997128921817,18.0868008366446,55.8285893807435,30.8344768028376,26.9878084031768,19.7211456799949,29.5299850313142,41.9997805754828,33.2764182417624,52.9242727849213,40.2356297366472,27.5870920319149,24.9034853782951,22.863353832451,30.4525224191074,17.6429976448909,27.7350158838351,21.7002430781822,29.7214488073589,18.0279958043553,20.7262773997999,22.7725091901026,27.1115738510681,24.3985418213035,26.1781526579991,19.7115666296891,24.6860111752317,19.8629141495379,17.2292427142744,22.1426128894001,21.0706170959097,24.4325843873291,23.1577912929722,1e+20,30.6158947876071,58.8348678286818,18.7513785751502,20.0004609287892,31.6222217245402,36.3222546881668,16.9935556560906,21.364600230237,29.7792546846916,19.7799474625438,17.7553750094967,18.175961763873,18.5308380928232,51.5453085032536,22.6205075852424,20.667734626744,20.6134027890154,20.5714261290677,25.2713931740742,33.7989393081431,22.9654660274161,24.2687631197041,28.6505716057252,29.4525245180784,26.9516082244005,23.1605740118544,22.9467801779325,40.9355657907147,29.7471509177912,34.3526015553984,21.8665544743437,15.606896136423,18.6604905739228,14.0750131626421,26.5243493384432,26.0306163804217,35.9051807188842,28.0413777867731,20.450610743807,18.5128740268334,24.6089049587025,43.0487464653511,16.5183786215544,15.3724002718823,24.3743639955123,18.6875452522086,40.2670006999968,15.7766548962202
44.9403546558537,53.7302227830409,40.4482602102491,35.4588845427664,26.4719510868417,42.1653670556042,38.3890106285079,23.974231912512,30.9515329343749,11.7825668136111,28.5037933008965,46.9636182977222,50.084217187839,22.36101179035,24.7913120872549,13.017282857568,23.126142565,27.6012894280946,33.3394901376486,28.4653106164949,53.2578454485655,28.0498571746089,26.3279076218531,27.3138083077483,32.1015873735316,45.2004185556003,22.9547097142077,53.0360664269999,44.5304779728284,29.7992593197778,26.4951395403135,27.6304196642749,10.0859020758718,20.2885502236581,24.9684143250216,21.5086286040972,36.6790258543627,20.3793817035591,39.8740581907916,24.2766505306993,31.4458536435981,37.5155160993326,36.2264741049614,35.7682588913781,32.0196517229639,21.4115778520277,15.2249548536491,30.8396993441262,14.755764830047,26.873936116348,17.4878008539116,30.6158947876071,1e+20,64.4896087442102,17.4180621502588,18.6377693480791,23.475906371488,47.2273782687002,14.8496173887756,23.9649407595258,21.2367495316767,17.4087939939116,20.489228482753,20.949100261023,21.6620511209998,52.3613441704358,28.7436340246904,24.640352054776,16.0929042724695,17.2898679194707,37.0562310658611,32.6188083916202,45.0060775930423,26.2314854101669,51.5245705683936,19.8483416618095,30.1481901640885,21.5030441796073,22.4629911327916,46.6490372789063,27.5112027870441,39.2728829432579,28.0721197001111,22.9200744289861,33.9157988725473,35.9003211289563,36.5493500360147,25.4188909209861,17.0989596690109,22.8539339243283,37.0401224572399,33.5812812133866,16.3592465848234,53.2686290584665,16.1142444166131,28.813625688513,10.735840860971,23.9644054226532,24.349533483293,29.0788286659276
27.9257196836863,36.2871228137554,33.6375960511316,29.1071118315325,53.0433882214734,25.536972613615,24.3662843301301,46.0303915772286,33.3710804754075,69.4807676764285,48.4144550177304,20.6914800847225,22.1007574837195,63.4743989678048,46.7072499300609,91.4767495757746,64.9552186135616,51.7339971001896,24.383224050182,36.8869126744588,27.5484104501862,31.5690021871746,62.4223248133371,57.2988942649021,48.8073915405714,31.4374024952946,47.3905785849048,25.6157233136638,43.9151256178037,37.968734342746,54.6644494286501,64.6641574225222,70.708030303504,57.4573933795233,62.7528617425466,37.7043535447245,43.7201678994048,65.090046398197,23.8366060671347,44.0655895856794,29.2467040309541,31.856000953171,33.5262701420015,28.2841692780742,35.4392100279287,56.6240568393852,61.4770284047244,39.2210019880817,69.3289706135238,28.5718573282271,60.7825919184661,58.8348678286818,64.4896087442102,1e+20,56.1842413283669,51.740475452139,37.7141907156705,16.7159296543207,47.3661367917494,49.7147905532142,80.5930705630475,45.9712014697748,58.6931170105194,49.3751744771516,42.4290911175065,25.9635637932026,30.1590460429048,45.5811776906444,64.7842719864202,61.6107350091648,27.257339905957,67.1280962971039,41.7799271753538,49.190692758702,69.8008868161854,44.2254223428794,53.1148631242762,51.7447822987039,80.3722578057313,15.1472835461018,36.272928770974,35.8728273014225,46.9780385969139,32.7569585918492,39.7680404929428,33.4318790509641,32.8934420219264,61.6767395016343,42.2430805480489,47.3120479930014,26.0600233667108,32.6736236684361,50.5869022303334,11.9529113445074,49.1736793704463,37.5072247752605,52.4984168055268,44.1159805777955,39.1441739334808,61.4233828436267
24.5607222159911,45.2120211032921,22.2233222736376,39.2120377802625,17.0379954029967,40.324309575644,23.6292511750546,12.9748955487027,17.5663592773112,13.7840535691584,14.9372511415656,29.8932013641882,46.8847106288966,18.3958238939259,15.0713226752131,22.9727061285861,20.1045365961407,18.9375064714328,23.4449869547164,18.5438423064264,43.4354091200649,19.4073930416654,18.523680004539,22.6014291136436,21.9093868235888,28.9899877209618,23.1646959590338,49.9339003492667,29.4754313184362,17.953315202755,20.0111571363204,20.7425828043238,15.4479277781157,10.3395573592399,18.6528470123397,19.0397284396714,28.6671543047523,17.2117540143385,27.315567232245,18.5898442214027,24.6478711282229,23.9159617502263,19.4466188262862,18.7138054825795,19.6028255447798,14.5765241697884,16.2202750062685,27.5193469606757,14.1011433662328,24.0412085223771,15.1905116203084,18.7513785751502,17.4180621502588,56.1842413283669,1e+20,8.8571310833791,24.1014642365032,32.4187948217174,12.5129640854299,18.0553645984497,19.0048824658408,17.3799812787514,15.8024584099731,11.0103001422645,16.789343741703,39.5989445856655,21.2594780952457,15.6341368482904,9.60847667451231,15.1679970804721,26.8415687062039,23.3977081838523,31.0719849674921,17.3457137686657,36.9832740205255,20.1858056149566,25.8534626068165,16.5202194657994,16.1699385093617,35.6762309096038,23.0501126917126,32.7789762415881,16.3077475150012,19.9201289138065,16.1589649936906,26.7483656696676,22.8509294304398,19.0491381266952,20.0970867244383,21.1622867619138,26.1177350429321,23.112295597711,17.5339812736724,39.683528963699,12.886390537204,13.9828383943375,13.5215185988182,13.8122064305271,22.9231282756446,19.7121876246923
25.2609228626778,40.6930313087196,21.2171821104732,41.7012146969669,20.7185817455303,38.8365776305343,23.3475446226367,11.997840467501,16.7691340277191,14.2764145940448,14.6470123881302,28.8383778715269,41.131422075259,22.3448069404611,13.1531645605323,30.5003678633072,24.289613200037,19.9877422775266,23.2314940893396,19.6622834908148,38.0926222438852,22.2152668505705,21.8678190249236,23.3405652962468,22.6339253527521,30.4326694612564,21.764252508781,49.6804191224427,26.8547325186528,17.2350132205301,18.8357170638195,23.8802069036399,20.3161976965858,10.600468565806,22.6784814095107,18.7462061388202,32.4644790388776,20.1754833368601,27.2409373164257,16.317763184135,23.3717741033457,26.4329111907918,16.7005192260748,19.3824712467973,16.418146077409,13.908661798198,22.3168740843909,27.9650645831649,15.62753530922,23.5549440219262,17.8727477009033,20.0004609287892,18.6377693480791,51.740475452139,8.8571310833791,1e+20,24.0901477152183,29.5748830454191,12.2735001045762,15.2048757313174,25.3595818949201,19.751955279506,15.2400839901823,12.3452686442283,13.3276989668719,37.8681057358485,17.2194940240699,16.840798217533,11.9173158526003,18.5406493799877,26.178829542958,23.6221455758027,30.8053645034446,16.8795636624215,37.8824067333055,16.5068035256083,28.0768942857981,16.3586114555106,19.272590488759,35.5362436492755,23.1312022134373,32.1834538456854,17.3170127746182,18.2203798557535,17.1989322352767,27.3562005451142,21.7021948564222,21.3138268352714,21.7697370886637,23.9057739558506,27.0748826636843,21.027347904195,17.1519169496032,40.0545945606009,12.841003630524,14.6558788609118,15.58897542467,13.5934842561272,25.4790161998612,21.4623616586775
35.0771594758864,34.9242386501679,33.7939009648924,40.8763772156103,17.6337138971987,38.4322232077808,31.8685609682985,25.6696810871644,24.6360115344344,21.1862992810226,21.9151107358246,30.2131720320063,43.6196750115906,23.9621918758957,27.7423230351246,37.0473148720896,28.3764660001905,29.2276091445307,27.5396221818878,33.3209161643059,36.8766376850238,29.2628673750506,24.9815554714158,24.3026169579588,29.1722680220515,29.7722424636934,28.5839874117156,39.2490474648571,30.3180706664636,22.6912178555674,21.7685778940635,26.8158101458753,23.3251397614877,25.8720376908472,34.0142727950011,12.3104001875898,31.9760885649131,28.1165026235632,32.647621913666,17.8139144073049,29.6339998979128,41.5614804707332,22.7997454680698,31.1733933081132,23.5765698085826,26.526763649381,23.6277032535069,30.8468987106181,24.7767367942383,29.7225030584004,17.196365000902,31.6222217245402,23.475906371488,37.7141907156705,24.1014642365032,24.0901477152183,1e+20,31.2829704003825,16.8887175495902,23.3097352138095,30.4315425716223,21.6960675171937,29.7956441798244,26.3962056110774,22.4988804067538,29.2366290447909,21.5481191042247,29.3467729918367,24.2465449841316,16.6217017875591,38.1022277933408,33.2618821977719,54.3435260251034,25.0885953152113,46.1719008770331,20.0763732281634,31.461324289475,22.5569060492773,30.9806776980172,25.6149217634494,22.7645392906434,31.0924355822176,20.4936746528508,20.124504162127,29.7003213423207,35.6027670040915,14.0054883342556,25.0325632460752,19.2018890518252,18.901530242905,33.6774619515245,28.4841681492727,28.9155905988333,33.3591815684042,24.6115286723631,26.5835862377255,16.5195004141375,22.89708681534,24.7972439391582,32.3106347113567
9.20942095197059,28.180456002048,14.5251111686814,19.097739670279,35.8066776949107,20.5984000494954,11.7074810000251,22.9306263324858,20.848524750068,40.2104803525301,25.5526692125343,6.89257101613824,27.9989096798859,43.3750201416063,24.100283450238,57.1661323679567,41.4192755616764,31.7104027145308,18.1644760975499,20.3317146365052,24.8037981416016,18.7146015283456,39.3712938125111,32.0060637310739,24.6420281669239,21.0579488184618,29.6352790478187,21.9506490903968,19.9527488425628,23.8082406855761,31.6396026110184,38.1880829186373,50.0460748826016,34.5520637557012,39.1117768919082,34.2206418408761,29.2259167952692,38.2615361224504,18.6528008912726,40.2569713619029,10.1864821051909,20.4948067767246,20.9684190069333,14.7630802947405,19.6992713992543,30.6753380183286,43.7939991038179,28.9612131022977,38.4654993193985,17.3609186921627,36.1923883117942,36.3222546881668,47.2273782687002,16.7159296543207,32.4187948217174,29.5748830454191,31.2829704003825,1e+20,24.9089935362552,25.7319573275783,50.3375489421592,30.9096566883638,29.1143127466388,29.5141421192595,23.1018296586443,21.9312737694185,17.9417768067335,23.3536481575891,40.6088198600247,37.3172491493902,19.4051640829361,38.8069150184692,30.5893013357,30.6156613516915,43.225035267189,28.7231617255124,28.2799821917397,37.1031797446032,49.5928260165335,8.93444803923613,22.4377061510993,25.2662867088289,28.9342189264359,18.6469258641471,18.9357539246364,25.6349008051809,31.6312295118483,50.0472185867968,28.9413143018615,34.5196617103985,18.8426321034732,20.8911968798572,34.8172721492445,7.02921782758476,27.3209491087007,17.7724626148317,36.7788492315303,24.1623981480377,30.9898977862599,43.3760310202021
19.026907485643,34.1940298167178,23.2960052771792,35.1713513129375,15.5334774557956,26.6974749609289,19.297741823804,10.9913680040527,14.3354402962455,10.7644172136907,10.3131336230798,17.3516077850674,30.0043125482513,18.6673683048151,14.0268727989528,23.1405088200555,16.820858345,20.9287360251776,20.1592070318342,21.1190886681584,29.6789860847978,24.196630495715,15.6787156391113,17.2084503512789,14.4281016510758,27.3513862973303,16.1300435151983,37.278477446188,18.78780316318,16.0999022375278,13.036390889099,19.1122546386179,14.1123909884212,13.9542858851814,18.821659006549,15.5115269933171,27.0666115672054,16.8381774037288,25.9286066098218,15.0866287672712,13.4092711904357,23.7435852753847,13.3869377116896,17.6620189581783,13.4027495413724,13.6220180144722,11.5251636550256,30.6838731268428,11.5884344486123,17.1969812040533,11.7664599226531,16.9935556560906,14.8496173887756,47.3661367917494,12.5129640854299,12.2735001045762,16.8887175495902,24.9089935362552,1e+20,12.7633428759605,17.150543908613,12.895675852321,13.2556094902973,16.6784200840577,11.6331850395374,34.835608658145,15.3445131530192,17.3750767752763,11.9584557520733,10.9364044543364,28.2789389833375,19.1393881919446,31.0845808271788,12.9047514169552,34.5345402869131,13.3147489834201,18.8046377041781,14.3919646935843,17.9411948932949,29.8314967069068,16.0023996545762,22.6359441127728,14.7620621311278,14.9183425343985,17.2300079154515,24.2862535539617,19.5590371113382,16.066517075536,11.5856757451648,16.7241671360944,27.6641793746557,16.9440067631285,14.8557405611541,38.851685606551,9.962034884365,14.1426096837278,11.0141150758984,8.54808566908156,18.9876167399163,19.7539263588712
22.7637705181886,34.7345960879174,28.2010969673165,39.3718749574881,20.8017138954901,21.7696611623655,18.8489384960786,15.0602650245853,13.4373769615455,19.8934438299048,17.238902494,18.5527249838753,30.7916199029247,26.9698274500927,17.8611573014531,34.5076904090445,19.8592101042859,20.7363456821417,24.9394727991848,26.0335144454845,34.8516703300795,31.0904550678617,20.7100743863864,20.119625651796,20.2020002640275,32.8196277686373,21.3295117284581,42.5246681693967,21.7882131942116,15.446356068746,14.4624704227024,21.0094476972253,23.9624227164509,17.6081209953757,21.5790458288641,22.8993058013617,33.1090294743048,22.9727670946546,27.7163938237409,21.7224564207473,16.8827117358248,26.981274528155,10.0685647501612,21.5096024041034,20.5674278230475,18.5133585790714,23.3032076604136,31.9606429064309,18.5990518367478,18.0805984354478,19.6954986295606,21.364600230237,23.9649407595258,49.7147905532142,18.0553645984497,15.2048757313174,23.3097352138095,25.7319573275783,12.7633428759605,1e+20,24.1058612011173,23.3288533870759,13.4198926214815,18.1622547845477,14.742462724526,41.5229050053989,13.5815604936425,18.8699350723745,20.5655482427703,20.3492810050872,28.908795683777,24.6453111491635,32.3928913287131,14.5700056241265,28.7841510897281,16.5350757342901,25.7156739780899,23.371086488143,24.3182503400347,27.2122887698971,24.6739831674393,25.3409050256604,18.775991713848,15.9502607436726,21.3293388776392,26.3114867521134,22.6110830865708,27.1578230857461,24.2369869741628,26.6525966814092,29.1710194189224,13.6354452679707,17.2530257594524,41.5561466525899,15.6440484729285,18.2517712567479,18.1609667242013,15.4164838040995,23.309608577758,23.7257409119336
42.1622857368125,45.1398105284414,47.3503562878655,51.9613182972139,15.3865253511335,45.0107661197664,37.5914135869018,23.9758663746051,22.0483454341419,22.0212715140641,18.2214064434562,40.1295005926593,38.6723475292429,14.7407403487903,32.3782968216443,20.5868681365859,15.4485171546007,15.4056948152711,39.9049969381685,43.4492392063996,42.6712646797009,46.5480916012834,12.3303989513009,25.1036870902421,26.5191556938315,39.5409857579108,32.156140484654,68.916042818105,41.3155020032873,21.3269296068894,21.4223906388541,14.2619637381262,17.4547106502463,25.6067996664403,9.98420245004309,32.5914370866795,34.9995179680752,16.7046402492053,39.0480158571054,21.2992373204323,33.6391823967376,29.0462756154545,28.0987246653623,40.1367158476928,37.8938604278601,14.4032991461667,18.3925932972225,51.4100715509509,16.9886002757958,33.4415289872848,25.0602646548816,29.7792546846916,21.2367495316767,80.5930705630475,19.0048824658408,25.3595818949201,30.4315425716223,50.3375489421592,17.150543908613,24.1058612011173,1e+20,23.8297579944377,17.9949895103937,29.2541224126464,25.4145034606156,50.1262484811639,30.3675790518235,26.5908606831474,22.9580446406224,13.5229714570281,49.6436478085473,20.7032367220013,32.8002078452208,23.0744773367287,38.9169746994929,32.667933149641,20.4794544303967,18.8090088543022,16.6772205350181,55.4568862369171,44.619118819913,38.4458785326872,17.3379932932815,31.8527337417217,39.1933270428624,40.6662910785152,29.1086796955233,14.8390367676065,31.4238225886391,25.5052579545769,49.283238724885,32.640341292779,22.1560252635422,72.4768594435226,20.2163774543654,21.1864139445277,20.3725564836401,25.032709349201,40.3922231145723,22.1268203974041
26.2911532115964,33.2086790976412,23.0416589077946,30.5993298750881,22.5391534322245,27.1980081020902,22.9221642299085,18.655213475163,19.3498140497592,11.1137055114694,15.9934863060669,26.7612594975338,33.0853538881301,22.6430365918313,18.5949008627156,23.2262264545166,24.5244733727121,26.9286355151283,21.7352918694675,21.8681228074444,39.529223322565,24.1966521075468,22.9632850270063,17.8079472529996,21.6281179585642,28.272580680629,19.8998177369667,44.9425368971141,30.0988314741591,22.0239005800763,21.0832430204382,25.8083759175386,15.9874580141711,20.5196643995164,22.8922969617389,19.050766577393,24.7733516655645,21.7200710747285,28.0065462720836,20.5634306589109,24.1302413620825,23.9632585748224,22.8861211701273,20.6734658438188,18.3612487240114,19.9613096203712,17.3464209372179,30.3460973743895,16.7865562221604,23.4429988908844,13.7591014145643,19.7799474625438,17.4087939939116,45.9712014697748,17.3799812787514,19.751955279506,21.6960675171937,30.9096566883638,12.895675852321,23.3288533870759,23.8297579944377,1e+20,21.5578096150235,19.511853138939,18.2072917917905,34.8670423069542,22.5969091978506,21.6034923539451,15.663566243723,18.7028734167065,28.1115552533875,24.1401884617,35.2191046183165,20.237325960473,31.9127365798741,19.7772439416859,19.417572096915,19.1739746358807,22.4446347015613,30.1230928770613,21.1494894600424,27.4290656974322,19.9427667288152,19.7373542962153,20.0747848327557,23.826709645556,22.4610925959806,23.1945334629718,17.5656904169709,16.1731688605648,25.5208203905845,25.3913904370736,22.0671382530036,35.3830305375249,15.859441590125,18.0191361327467,13.8645355044535,14.1657291250136,25.1840147338525,26.8083068742069
22.6028221325016,46.5159853701336,25.8018139473696,35.6579051354644,17.9111495743171,32.9160894199312,20.6989703341524,12.2701456341703,16.528764270467,16.9042143966257,15.9108104522119,25.5484483860774,49.706384499634,20.7988630239696,16.6548696729611,22.5929802341936,17.4904878927466,19.8231836365827,21.5777235726604,21.1133647453356,50.1293124095486,25.4874798600386,19.9068091686842,21.8096751528116,23.55322917395,37.3559441766393,24.0009029108417,48.4632916585201,32.3341531362997,18.9907010798868,18.8601131719279,16.6247529137031,20.1648846487141,14.7972663502409,17.9704569635415,26.1176135962518,32.3622820734217,14.8512560188146,28.8886754133073,21.3433601735995,21.3659640656963,26.1702340378512,18.6921208063213,19.5079396783213,22.4347158888478,15.4651592922716,14.0388727817285,28.6454022784265,12.9473958893701,17.8777179091413,17.8974411670131,17.7553750094967,20.489228482753,58.6931170105194,15.8024584099731,15.2400839901823,29.7956441798244,29.1143127466388,13.2556094902973,13.4198926214815,17.9949895103937,21.5578096150235,1e+20,17.21706526486,14.8562866916428,48.9439584377745,21.548790459068,17.0803597437966,15.8469492528128,16.7584215749646,26.11028549171,30.2654895707642,28.555814849544,15.2548897271287,30.4280119349595,21.1543440470017,25.8190254077659,19.5036127026558,19.7885003031464,35.8182526696996,27.6290818534977,30.1600743889385,19.2542868651812,19.048868371785,18.3602319469526,22.8641192858846,25.066960113853,24.443571591024,25.2427583081155,21.3866144794615,24.9522545819424,16.4061869767217,18.8442290452471,43.3120654682636,12.4021498900851,16.1673414283969,16.4418235098486,14.3657274943687,30.6472582650328,19.6677164449724
25.5776743923665,43.2134009376934,25.4571082549037,37.7404872043431,20.797790412694,32.6302012804389,20.3167842074439,15.6300991974121,16.3179110804569,19.0041008188333,17.9412187036743,26.2567841416695,42.5812252012709,25.4920009768712,16.1306634023301,27.2219936576547,23.6480922241856,25.0232382118668,19.7888358565051,18.1745884439153,40.0860862863763,22.5642308421461,26.7547974923478,23.4467585388902,23.2191087186516,32.4800941975647,27.2214066525734,47.3609413201105,29.6119589710964,20.1169219729977,18.7437148011936,22.6188445310803,19.8813790915668,9.75616307293894,24.1448921917987,18.6388535886158,27.6167991684381,22.0024356860966,21.31704659,19.9200155995011,23.07081111049,21.4568842838996,17.762647928519,17.8398608285202,21.6342224585195,20.5348425723214,17.0392493079469,22.1325403318152,19.4875047737333,18.4689697929102,18.2151168403971,18.175961763873,20.949100261023,49.3751744771516,11.0103001422645,12.3452686442283,26.3962056110774,29.5141421192595,16.6784200840577,18.1622547845477,29.2541224126464,19.511853138939,17.21706526486,1e+20,16.8104413463719,36.1804184238053,21.4417840620826,14.5865340896625,12.3916325977544,18.3311457075393,24.5529688396669,27.5587399397102,27.4567258319698,18.2462146812287,34.3419180606461,19.5569197182569,30.3073984242238,19.1936018993115,22.4374437306864,28.684663688133,25.1927039800142,30.4236247669005,21.0830831692964,16.1033159814758,17.2218324494587,24.5627629064891,22.6820900866312,25.5465487912793,25.1602009362602,26.2775483611259,21.7152417911601,22.286655942189,15.2337051690366,37.404935171652,13.7276039707203,15.3764128945045,16.8079890817445,14.7136295027892,24.0291654748109,20.2492118975867
16.8100564569167,34.5793917948001,21.8677961958687,35.2539493612056,20.4178122774009,21.5204935324035,17.5876321738619,11.2742991055525,10.1356643388331,15.5421921986342,14.5727920181759,18.2100516451933,23.7958225314156,20.3534148717632,14.5292626316261,35.5186038545065,20.6231979181169,24.1809363923986,16.5088825055777,20.8540754556342,28.9532031836783,24.1701518737469,20.2038815759512,19.8889140566882,15.7713544507716,29.7493759219464,17.330913019663,37.584002482127,23.4046364375677,15.9992582453377,17.4993163148132,22.7901235171142,22.5697266601127,15.0081198539055,24.8294584053629,18.179475032377,28.6354947915641,18.0751522174827,27.7775679167365,18.66623602153,15.5843387163841,25.4734516072324,17.020941582304,18.2135673499142,12.5927581009201,17.4483248285043,18.5018450272482,30.0353982149395,15.9153736813198,15.4826863286699,17.3350574836558,18.5308380928232,21.6620511209998,42.4290911175065,16.789343741703,13.3276989668719,22.4988804067538,23.1018296586443,11.6331850395374,14.742462724526,25.4145034606156,18.2072917917905,14.8562866916428,16.8104413463719,1e+20,37.9936363303776,12.0371898533694,17.4306653965188,16.5914151725645,17.0120746156584,21.9483899506419,21.888740528768,29.2112787829765,14.3139454146615,40.2509129544923,12.2566711747703,21.2774415993023,16.6976515250785,26.2103347077715,28.9965293015173,19.0929793678225,22.1769120580163,17.7274785743476,15.765093287781,17.7471023255133,21.5170174459536,18.8947360117638,22.1910378069445,23.3123257466769,22.8662181621855,24.9506619690779,13.1991764645757,14.4632270558774,37.3947448122028,15.3063961921661,16.0341074466375,15.8111546424384,11.4047356805978,19.4354023202877,21.6805955585874
29.8061110799459,25.726264449016,30.2609746944028,25.554350972917,39.8750047581909,32.4833120767396,29.1443037263903,40.5223262472917,35.1850277232126,42.7126576040632,36.7549329166104,22.5973066920542,30.008720675144,44.2391626426595,39.4659853341251,53.7193744057922,41.313641639658,38.2526174038948,25.824898595891,37.6007111491366,10.3909383428116,29.714825387837,42.1405922691711,29.1920400375899,28.2473282662771,14.5386455783222,30.38475307953,18.2879554901711,28.8931612786775,32.2944610808111,33.1966481139457,45.263434110441,50.3713589136317,42.4849022533726,41.0841014260273,29.2276463913116,25.2772401749906,47.5901381690903,25.2476256106723,37.6746396417394,24.0996937454053,30.2508673935674,30.4868910116179,30.039352139256,31.2386468957685,38.4078485366271,39.7542768911605,35.9293968735336,42.1342446644517,29.6848606961893,42.1433633617464,51.5453085032536,52.3613441704358,25.9635637932026,39.5989445856655,37.8681057358485,29.2366290447909,21.9312737694185,34.835608658145,41.5229050053989,50.1262484811639,34.8670423069542,48.9439584377745,36.1804184238053,37.9936363303776,1e+20,29.8999889708206,29.8702226523587,39.6011035111377,44.5395823203135,32.1398913854128,39.8356391342613,38.4498668596426,36.951257024226,57.4524290335098,32.6354338237462,32.1363443104047,37.6556943528532,58.0183528763756,18.1488681038746,29.8737658213136,30.8494088831219,32.0258057243478,36.6168620846966,37.5619538561662,42.6916094485245,32.3012630856869,41.0650861110299,33.7057351181448,27.1328308905941,34.4565087793618,41.2098746474773,43.0838264548693,20.689723131615,41.1205612889965,34.3812492211856,38.2240617689664,33.4827596259868,32.5375623732625,49.4434090083128
18.3134575418126,32.9419303228514,17.241173188426,30.1854657402832,24.1400395167353,19.6691048615885,17.7218735343185,15.9404502683623,11.2831303400136,18.9505605639322,14.8861164924859,16.9862318197768,27.7539110731327,28.3549822203083,15.6562714006263,44.063448223127,23.0745334684481,23.7868085329734,17.4241588835181,17.9187390842876,27.8064435150289,19.6712168914001,24.1281068522885,22.4258140923589,19.8918990214308,24.7260070378828,19.3329730011255,31.8158412078557,20.817262001648,13.6155574760686,16.536082791627,25.4303290682012,28.9450658590911,21.0853451341611,29.8346865319825,17.6543190931424,30.7278685163698,26.5665859128085,26.9224599661568,21.6804088064853,17.1610391850933,25.4564994798094,13.9676295056857,19.7991123085602,12.9034256951538,23.0633635588081,25.4414353133601,28.8453716140115,21.856597337701,15.2501277842334,20.151956243079,22.6205075852424,28.7436340246904,30.1590460429048,21.2594780952457,17.2194940240699,21.5481191042247,17.9417768067335,15.3445131530192,13.5815604936425,30.3675790518235,22.5969091978506,21.548790459068,21.4417840620826,12.0371898533694,29.8999889708206,1e+20,17.5711386871351,20.7047763132691,22.1787942086379,20.092933992217,27.6368347591011,32.9306952155117,12.7735616030369,30.9684809269876,13.4631940683655,28.3293333745767,22.8373328139914,32.7439528047015,22.9548160230166,17.6488124135767,26.4114085717747,15.770449452033,17.2806365218571,18.1972667522732,19.0263563964917,21.9673474707395,29.0981745275,21.4328330525625,25.7275773241523,20.4886314615743,13.6134616942745,21.8041893134048,26.6392267630646,19.1512744036751,15.0481739725548,19.5195336807332,13.6168902129471,20.7541951437775,28.160474792148
18.6217020612627,37.510469232328,20.9878298314462,34.7386739768432,21.4018075513865,25.7802427942387,18.4813413887326,16.6889464546415,18.3355262970822,18.6856563090407,17.350210267933,19.9207070899998,40.1025168183307,27.4641180035514,18.1092954848402,27.4800930618254,26.2848255532307,19.1815812107393,21.4149552508341,21.3112452302917,33.3859640147764,20.5156252328557,25.974255680741,21.6843760962763,17.0034049562514,23.866456919418,16.2782334988382,41.2586682748241,19.1058855140756,15.7262971434396,20.5431675081377,23.4590783883027,21.6491145125004,17.7633140734947,22.4669466933693,22.8603023012385,24.2244962851126,20.9355247743844,25.6231960086203,22.9527870973073,14.9986292998705,24.1971696083414,19.6830646156803,19.0816803990978,18.300410145902,17.7387591880073,22.429694325933,27.1387179421426,18.7943740016897,16.1022170408504,15.8118342131693,20.667734626744,24.640352054776,45.5811776906444,15.6341368482904,16.840798217533,29.3467729918367,23.3536481575891,17.3750767752763,18.8699350723745,26.5908606831474,21.6034923539451,17.0803597437966,14.5865340896625,17.4306653965188,29.8702226523587,17.5711386871351,1e+20,16.7858542746358,24.8830536750943,28.3871028491551,21.750053784132,30.4405822911238,16.0076759292538,31.7776154093883,23.3442200113867,24.3898469986029,21.7883553145493,29.2581607558988,25.376518430945,20.8210833115993,26.0352873661787,20.3192173650072,21.0687526353126,19.0147741483038,24.4725160046865,28.8318916721421,29.9084998363813,25.8608958499765,20.3610941930189,25.437630157048,21.293408149965,19.8511993320866,30.6685471716444,16.6072159969842,17.9771160207195,19.1490500325024,14.460908728937,24.8588151819867,26.5290136289708
33.3719948978465,46.8674852713028,28.1587183638736,46.8123531322363,24.0033025612007,43.798629228773,28.6029938343791,14.5785021984315,20.1185091391251,10.6985327381638,15.4953493429021,36.8045163140159,45.3922155278613,22.8095067053301,16.0552176814447,26.0415704314277,23.678771708645,22.0572828064378,25.4154853269592,23.2053009795907,44.0282805804476,24.3530514913936,22.8815594640225,24.257152309252,24.777942267782,33.4947203302945,22.3667688397976,56.0974626063932,35.3816455800233,18.354520753733,20.0005925823698,23.4281068702928,17.7250152797633,12.364381906386,19.8966938140722,18.1287846529145,30.4976897805681,20.5024174929513,30.5062796384042,17.7141515774872,27.0324652263858,27.9238853660234,24.939089618346,25.4874680270236,20.5782356177988,15.4334798640257,16.2515931146319,31.3255760308685,12.8350996117433,24.9149149797304,13.7591875143047,20.6134027890154,16.0929042724695,64.7842719864202,9.60847667451231,11.9173158526003,24.2465449841316,40.6088198600247,11.9584557520733,20.5655482427703,22.9580446406224,15.663566243723,15.8469492528128,12.3916325977544,16.5914151725645,39.6011035111377,20.7047763132691,16.7858542746358,1e+20,15.8137613825253,32.8420082795125,26.3895043844181,34.5851118920238,17.822525191398,40.8705054181191,20.8045390304148,27.0711376280955,15.2871499579089,17.7724194360475,44.1213238639366,22.2745414990162,36.9377550666146,20.1347001928557,21.1081752216287,22.0914912353683,29.0501962970367,26.6140688055009,21.2424542823646,20.3056394466126,20.6558679389876,34.2537725115177,25.801237020631,17.6394065600607,52.4745698159671,12.3369842133822,15.6902251571427,10.6672876551503,14.4613437559786,23.7395831149213,25.2419985466913
31.2358171442076,38.5943475804947,36.0622834828314,43.8433256685301,15.2512597876735,35.1518218093293,28.2788250161146,17.7270356543897,18.5485715515524,17.5467326672285,12.1259637140245,28.3975379558709,33.7928411823933,12.8109187190381,24.0941348756192,21.3857515575931,14.1731444009721,15.9436108177483,30.053537373205,32.6426544907837,39.0219494336082,37.4562647726239,15.9845889284991,20.8986074240652,22.4702070119094,33.6196289595932,28.2696586034191,50.354590370702,32.5842109719757,20.8551702664227,14.9542635353035,13.3756716664971,14.2459773251312,15.2946759994179,16.0078409799446,20.1700374589443,31.4933182688637,10.6830039176715,30.5674277867163,18.3868350453052,24.7486192092179,24.9600601254507,21.0977021787852,28.3929411964102,24.3410800567593,13.0315551066562,12.0664250194514,40.3819536447691,14.237241057374,25.6596781239276,16.6972009111373,20.5714261290677,17.2898679194707,61.6107350091648,15.1679970804721,18.5406493799877,16.6217017875591,37.3172491493902,10.9364044543364,20.3492810050872,13.5229714570281,18.7028734167065,16.7584215749646,18.3311457075393,17.0120746156584,44.5395823203135,22.1787942086379,24.8830536750943,15.8137613825253,1e+20,35.9564851551035,22.8298674906461,29.3117605173266,19.1811580140215,34.4155955641192,18.809453552545,18.85007060988,16.6295778510975,13.6425943170945,42.2243940910519,29.9196039638493,29.9400281273572,14.3272712223204,20.7400577881253,28.7251258377264,32.2884085006327,21.2297658957461,15.3612138356375,18.4176908831296,20.8672903771251,35.970029863125,23.9516431205696,14.9397866720733,51.9451687759379,12.9387531227458,16.8149449919897,14.5149665838889,16.0028013869662,28.6170079783093,13.7617947558916
14.7152047809598,37.5745711106111,18.2058135036555,19.4579539877759,36.509545592356,22.8538728708358,15.6458646824975,16.9150562395599,20.7528607280947,36.8963699256074,27.1235556591771,19.4508760429203,27.4925181523054,35.3813804696227,15.7562836315414,61.0327874402682,38.2852748539584,33.2094381485828,12.7569672214427,11.8882707947135,30.5018809437442,19.2325895997092,37.0248230490106,33.6884573162828,32.5180154786133,32.8071101379781,34.0301566738762,26.8974177655372,35.0156288791005,28.8717566440387,32.7299281363518,37.6310026736709,48.8867807263212,28.2973662413001,39.1204043167891,32.7277543064319,33.9218887025272,33.1290235488851,11.7093287970184,32.7005649940167,20.7720228927509,20.6618102252407,22.9120874620539,14.1272052674167,19.5909321518483,28.6242929645007,44.2756293604716,15.7287014584689,39.7500817639881,20.5602093860326,36.7693110770707,25.2713931740742,37.0562310658611,27.257339905957,26.8415687062039,26.178829542958,38.1022277933408,19.4051640829361,28.2789389833375,28.908795683777,49.6436478085473,28.1115552533875,26.11028549171,24.5529688396669,21.9483899506419,32.1398913854128,20.092933992217,28.3871028491551,32.8420082795125,35.9564851551035,1e+20,47.972706009553,22.971587888238,32.984131783809,44.8054048919301,30.7780076322185,37.1648815603742,32.83869106477,36.0783220062384,18.2955804673575,27.1436948734264,32.5659099684081,29.8598424730333,18.5977472498719,17.062904112034,18.2894773927109,25.6085350134014,40.9361490661426,30.9917989872788,37.2133735386931,10.5235230588595,19.4756716022749,25.0961170954016,21.424222324127,21.9767524557743,16.4036901218016,42.9199888021913,22.615558248739,32.4396061033478,26.8937551831792
