1e+20,12.4820946498121,3.70357926878726,5.14531256813568,7.86590100624109,8.00239093576836,4.18534465332579,5.07455867985131,8.3440774238535,7.782490313757,5.44221916908245,5.25261408106153,10.7222463588896,8.98022238674574,6.476955623707,8.26429111512963,8.2997722001591,8.32841077073563,7.07010830942267,3.1601617950777,10.1232955080554,7.28480061965217,7.152220830226,12.3249088928569,7.38305575795835,10.5677269418258,7.57544475164171,6.09621470744608,8.17564517901174,7.78415479713431,8.52219068040582,8.25485064668514,7.93212199669038,7.33534837464837,8.06198673349112,11.5764815505944,10.647035585241,7.34982915518614,4.41719864640704,7.90737448922009,4.13478566171987,4.94884723952339,7.56643655288432,3.07581678258113,9.22812377624486,8.02609776970494,9.43466327353222,6.14437522501438,7.62567587351102,8.68179676004094,7.34392797370771,5.72037066066923,7.44132827608372,7.5635051216001,7.35082936933452,6.68016669393263,11.5463306131503,3.67577924015438,6.84722552789199,7.36153122984238,7.92168891743757,10.0356657233915,5.34117688197479,8.23875392623781,7.57042455320788,11.6775319954799,7.67178887551964,8.34217538019267,7.16059993528567,7.09359482967293,4.07121340803612,8.5035883486043,4.57358928926507,8.08541120469561,8.2160854199318,8.12847962903123,8.78493574683769,7.87988942295478,7.95541595495063,3.67225666932485,7.41153601495972,12.068604211097,7.56256512545504,6.84859536277905,3.04456603897154,3.7190991785401,11.189202182084,7.87498352403431,8.18113417377684,8.54715193954419,4.7455393834777,7.6417317449831,7.46781961413285,6.35269687381159,5.42868514018583,4.51091713811768,11.7620275138497,6.19371394973897,7.26290111115531,8.66145116121712
12.4820946498121,1e+20,11.873392990558,13.2428103757895,9.54420503088989,8.17221457925514,12.689557596027,10.9133509302682,8.05950844944191,9.36795319669637,12.3734996643528,11.589136296802,5.58861344339762,9.22134721483837,14.7610850588019,9.70652728334078,8.70223358785293,9.45760271606084,8.26695307251485,12.5175523898575,6.97852612652282,8.6356332115454,9.29502643367071,7.02906113862375,9.17704515090909,5.16250833505543,9.59734574987187,11.7090735109081,8.31404384912084,9.09094467217893,8.13526282768006,8.52250562879658,9.26420005180879,9.14435660804009,9.64796656076736,4.08189555020617,3.61859829340702,10.1775260433768,12.2204903959677,8.97117368524535,11.823094102598,13.1864733682625,8.3398812951913,13.221126554646,6.32416049516708,9.80052808631473,9.06380721436586,12.1818602585719,9.64787907217253,7.1928183713921,10.0570823898893,11.3455885123995,9.67449862230729,10.2308947091728,9.66410233874099,9.95067958941115,4.66113916063938,13.2130017938397,9.84044617710953,9.0344817550524,9.91266703348587,7.45513358699052,13.3161488748247,8.34093628372889,8.93582108825214,5.18201000547379,8.52875348185608,8.42057254532833,9.80501567294996,10.2146371640013,11.5249860262481,9.05449997550866,12.9533457288524,8.4213878099253,8.73755124379149,8.02712732666459,9.12709456205733,8.67302042155102,10.9809696251963,11.8017439861049,8.53757245754333,3.47363695612296,9.33814907983673,9.04686629222016,13.254533287468,11.9435275954338,6.53818763755571,8.56767264861613,8.87019992991901,7.70819012569918,13.6417792372285,8.50468693911409,9.72362489608717,11.0343620245506,10.9323263510721,12.9194888148299,5.54381333146996,9.88753164910939,8.7635501911024,7.45087820954959
3.70357926878726,11.873392990558,1e+20,5.22255610923891,7.25002142409261,6.95190272989462,5.79582638266783,5.36079164500887,7.32970927806629,8.03569073754054,4.58789538057297,3.96372472008312,9.98850491167732,8.4055876950831,7.89475821082482,8.50832881984954,7.59514448251423,7.86342598538497,7.11464648676453,4.80400871010494,9.1090548383424,6.83770440445495,6.80030356759878,12.5435183686522,7.08481329404199,9.93091138699889,7.40616650727134,7.03569694504027,7.29262492690613,6.81919136330688,7.67046535409111,7.7246886294395,8.17109515799412,6.32835600976682,7.69779806861311,11.3004343081571,10.1145645687452,7.32052144319366,3.98999175066658,6.87528714367016,4.41770532553351,4.89787463169788,6.70678372336513,4.89673136121458,8.68874561330853,7.1838885199993,9.70214074725342,6.92637091166546,7.54368291476364,9.00005537004716,7.28499737823015,4.7781904045917,7.87271481294585,6.47523482838152,7.18975474370611,5.70035042877298,11.3060952302514,4.76796569845884,6.74476982917672,6.31638444606315,7.52756209234516,9.91900244655907,6.71421260219054,7.27682087572662,6.36504716186805,11.2491541205582,6.45330742594208,7.87281585645529,7.01034021735426,6.84782512489573,4.29900260181749,7.88640485694238,5.57768364489652,7.09600639240859,7.35675673462804,7.16689798456456,8.39698602759683,6.89503805495239,7.35372369813402,3.89897746072138,7.42171305329741,11.2808220220277,7.22575589981703,6.74446195290756,4.91704644604734,5.00247583599292,11.525186531409,7.35465868619047,7.28278854833222,8.48179241497518,6.32711704412428,6.3645235042278,7.23967973959463,5.25369844717593,5.99431329816992,4.44674743363722,11.6245660757287,5.71346296743392,6.04147032346587,8.22247598453256
5.14531256813568,13.2428103757895,5.22255610923891,1e+20,9.35199385702762,9.74782762834802,5.54585883640626,7.32323237124433,10.0297192946988,9.69883702267175,6.20675367517512,6.18217721017743,11.6491713730377,10.1273786529206,5.79256671291371,9.90029196710846,9.80415492872325,9.65620130382315,8.47838706452012,5.00551190964975,11.4151710437454,9.39288405965522,8.97210813215335,13.7003634202653,9.39652445324391,11.8306349071687,9.32940332133518,5.40004375688083,10.0340885779001,9.23271442063447,10.128550403293,9.71328781333775,9.88026051484685,8.87761617607966,9.35004133083324,12.8044787522266,11.6638357951132,9.04563966144418,4.85010551088963,9.30282056967469,5.93082954205209,6.4682032585753,9.52853786945885,5.09650366226022,11.1478884709411,9.25473432926516,10.7530106261219,4.16488553146929,9.45248250113724,10.7540511873395,8.90930471637738,7.32071248203853,9.4370056122277,9.45423610833754,9.27398612986222,8.24408039832987,12.622711324399,5.09017080894458,8.9176725016778,8.97421870102677,9.12842659702736,10.9842203953824,6.10890671120374,9.79180908624538,9.47560682183232,12.6468331515851,9.45307304025806,10.1914208655444,9.07205839923569,8.51622872188535,6.90462658314999,9.86831764571589,7.44004197389947,9.73294691001518,9.94531901192563,9.45805579563409,9.94697747168047,9.31951620361281,8.81729749583974,5.93509002962538,9.59653130946303,12.5509001624173,8.97032260387281,8.90125520425068,5.07004814705862,6.03675391289159,12.3083474717226,9.37862870607822,9.19184804039386,9.98828907055311,5.21452951702649,9.50865923721601,9.22965918796715,8.20864697951929,8.110865636491,5.0195694585368,13.3001084905881,8.79543839170957,9.04128529442939,10.8297310155426
7.86590100624109,9.54420503088989,7.25002142409261,9.35199385702762,1e+20,4.10565203572888,8.83563836564852,6.10859342571811,4.30644147782632,4.81330234539988,7.65681876640257,6.23838610474827,10.2473938813798,3.46200391316793,10.7415683243306,4.65041391839203,2.51809740855512,3.50960274370635,6.97982060450195,8.1956359400862,8.88494913737772,4.57803075236618,4.42059900066218,9.81136682153066,3.11745997052395,8.73373131304465,4.52135196482205,10.6757366639495,5.35139418375098,3.23571088312605,3.18866534612316,4.35300445644171,4.72776282982557,2.47637753465183,3.97996811498727,9.23949503040818,8.4387974726111,3.37349193705765,8.83647841152337,2.37501630380057,6.72287682467139,9.03493502063277,3.27533809753235,9.04323545490005,7.55157491498573,3.19384607252808,6.50651761921962,9.96734963064114,3.58132430256238,6.86120040551106,4.05848384042668,4.68639645663903,4.45519332582577,9.2104671697712,3.12483333398696,3.35113283384972,9.06900965939317,9.28386256673291,2.48947519975144,2.72903718087577,4.16636613828586,7.55230426390561,8.99006258936617,3.77244912273111,4.3199180536375,10.8239530318956,4.33280012967673,5.1343574273138,3.23312045683219,3.67810232150292,7.32407818999053,3.22110734166643,8.59522930486454,4.07634245036804,3.24139598616899,4.26553663786983,5.02245784178552,3.24658474061104,3.56133088859605,7.52423279765877,5.24405778890811,9.49888026940103,4.05552119431826,6.12689436593596,8.83537961522878,7.90709075350148,9.90769845341201,4.36066569829048,5.32861196456334,5.91647672479305,9.79268875216374,4.77935290453908,4.10714839209981,8.76975923268317,6.72600810054253,8.99480152613142,9.04069333238525,5.59350769700968,4.15983325914325,5.03639034602275
8.00239093576836,8.17221457925514,6.95190272989462,9.74782762834802,4.10565203572888,1e+20,9.35165481553889,6.98487840923758,2.3340998876485,5.79612128304484,8.06636852131372,6.49459918425955,7.72265821327938,5.61932682419362,11.4509651256812,6.61637614610889,4.08972825322012,5.57398145404188,5.97369590192719,8.50440205539954,6.18181434707588,3.6129179028688,5.53247838102488,9.22861623001939,4.23843030475404,6.44284896402691,5.57301794654069,9.97331931198507,4.49649787470313,3.41244342015438,3.53018814442854,5.28111823073113,5.87293575991908,2.49499412998489,6.09864086204351,8.0226795097713,6.75209610384704,5.61601446924856,7.97152461403532,2.65467425659975,7.53798526577252,8.86200149135761,2.3884327477993,9.36160234730319,5.25864885772539,4.48587501003465,7.24833854899759,10.1366166380377,5.54143518942566,5.72783590598492,5.93293795074116,5.72713972479665,6.12553965170562,7.01706262634009,4.82657643226339,3.72746665455407,8.06797840604788,9.34884791859653,4.41737019472617,2.36127175693097,6.11411088616555,7.43683844311334,10.194823566175,2.56074757365213,2.31120833865283,8.38373664503971,2.32473939268597,4.64015816719931,4.95123943190359,5.77137313820605,6.72305765656739,4.77618499726711,8.44884308761584,2.1647285461974,3.81250060926356,2.52461359132404,6.68267272327529,3.18536158763153,5.94180446853835,7.24979362461228,4.84559119550711,7.82331357313666,5.54860276369862,5.96088784828456,9.30022523758436,8.34427062589194,9.20380812784998,5.16666250712003,4.73414470250625,5.84859620327198,9.93519081655428,2.29111215943273,5.65143297120802,7.02811419093639,7.01161683671573,9.04322268660275,8.1778218876642,4.77481843077712,2.49031070508498,4.4516939607875
4.18534465332579,12.689557596027,5.79582638266783,5.54585883640626,8.83563836564852,9.35165481553889,1e+20,5.74710828624717,9.59429168828518,8.5229812182724,6.43910212227102,6.65952585604878,11.7619213520228,9.55179476375746,5.81178962292148,8.78548593416759,9.26576377896619,9.09500247395607,7.69717545694768,3.9398303610538,11.4716698105517,8.82761570158403,7.14605311788192,12.2255275480346,8.53709639520269,11.7363734954682,8.70264603460223,6.92411228307491,9.4157006968532,8.92029088156557,9.68604028953786,8.35274583006471,8.62821924068999,8.5282988979634,7.7991259094689,11.2341630506568,10.9048643895055,8.12311220678456,5.83206526165116,9.04341479832688,4.46836808558613,5.7090583951241,9.07508717443588,4.13553884283527,9.70918823299798,8.88866354608571,9.83702402727519,5.30862532291739,8.56599784203709,9.67765880064261,8.23611970638764,7.1199529827816,8.2561775598511,9.51659624012947,8.34315246603171,7.97375295093784,11.2503528706961,4.7031154325591,8.06013363959674,8.65132773035959,7.7807889572973,9.21625101507296,3.99685974778521,9.3751693339469,9.13508191892226,12.1529504082993,9.16023986033295,9.44469497933802,8.26177082364711,7.23328213268986,5.18874060970521,9.29607790203487,5.16832370476237,9.34502594825175,9.34628779283076,9.33428880283566,8.46733095177637,8.95047899238117,8.49618831689397,4.7605689484586,8.74658417853386,12.6017456378766,7.43388745485449,6.63268517624154,4.08932962350118,2.51642343247059,10.2196612502515,7.95429968188445,9.11160299507205,9.51493069366911,4.99862562889875,9.26557079349782,7.22961255427965,8.34540268429036,5.05824124942729,5.08171790099241,11.1802130864814,7.16863975436838,8.76694347462167,8.83150340798479
5.07455867985131,10.9133509302682,5.36079164500887,7.32323237124433,6.10859342571811,6.98487840923758,5.74710828624717,1e+20,7.27251995611425,6.47777939039004,6.40349879115742,5.52521352106139,10.5337129568057,7.24419512340251,9.05185861302634,6.56173492116569,6.65387693752139,6.75608096568163,5.45739200769287,5.02538980323999,9.88000188516962,6.38894517330274,4.71424656268489,10.8135185196525,6.00375480892315,9.8346571808915,6.15801562126498,8.51358675399534,6.58195394562417,6.3882155601438,6.95413948793118,6.15341883022586,6.54432090807966,6.04925267181148,5.51523141790301,9.74091007654578,9.21595334318598,5.89647818511642,6.89169927189858,6.29449558825763,3.67170271546566,7.41199379270008,6.27148118009919,6.56198081092566,7.7978339473767,6.52538618384664,7.8902837523815,7.71320774932095,5.81917286623275,7.82482969813984,5.89239073631887,4.6874391188485,5.98443799556306,8.39610491702449,5.9238224398808,5.29031823119772,9.56591892123835,7.01763784231379,5.41285732931397,6.08446992899812,5.7362295775741,8.11203894631054,6.18839623873578,7.05087937189798,6.36595441650399,11.1259855673256,6.4728570908029,7.17331842392205,5.70425898602535,4.61389023772769,4.85375375504287,6.88797134534834,6.4416848031073,7.03241618134999,6.81732498762035,6.93389637628376,6.37171977114757,6.54840828311199,6.41519690527949,4.04607406581048,6.36263914411216,10.6778853717019,5.28839097738217,5.18517599693969,6.31951972936808,4.65847967385205,9.66768541948811,5.7773510522252,7.09261662694654,7.15003943790588,7.71544221304209,6.55737026023922,5.03406760519032,7.68833688201497,4.13353043533822,7.04374989407444,9.70047051043351,4.30428787006635,6.07823154638688,6.58950877548144
8.3440774238535,8.05950844944191,7.32970927806629,10.0297192946988,4.30644147782632,2.3340998876485,9.59429168828518,7.27251995611425,1e+20,5.78024103559785,8.05747441815713,6.75797672859346,8.03442310709532,5.07333108175921,11.7367800718681,6.3050272499914,3.14617755803534,5.06594773773574,6.5856386396663,8.87673179415987,6.34718612238827,3.32679524419803,5.49458135807423,9.46080971295107,3.53721112259296,6.96499527980427,5.49708472947196,10.3735880675676,3.7896920437334,2.46184085525876,2.42188639688628,4.74331449270921,5.73815517686371,2.92149535382904,6.00878401789174,8.28083412683064,7.11314994561466,5.18841995303853,8.45092148495676,3.02291882143442,7.8355318239951,8.9340110130648,3.21339608319003,9.60882151052941,5.93592881193329,3.76495489273262,7.62046598802999,10.4820186561066,4.94946748207614,6.37484375316416,5.71551989207707,5.9234370766866,5.91160280017332,7.16934813553174,4.2983000989415,4.07725706584172,8.3522842715486,9.68434900880046,4.71822714555602,2.77125024290094,5.5440357778938,7.86073909069865,10.2468207018218,1.30612961268915,3.14652532276663,8.72573913407567,3.17012591208637,4.84010875235114,4.4141750395244,5.871658684037,7.11032921493833,4.38116845554894,8.72964616137813,0.866665481656293,2.67122090392275,2.00713776016513,6.11183685637494,2.10521620953002,5.91844375176722,7.73922236612396,4.98824687217194,8.12197366195518,5.05575115175771,6.16077742736096,9.54878252453288,8.62327697287094,9.47189642073213,4.69325250714828,5.26766387842119,6.19385435910854,10.3379867382528,3.10319682361455,5.64582985038163,7.31307678580737,7.12810517299213,9.19728728440929,8.32800901579757,5.29519127803955,3.27052059863103,4.41648002099277
7.782490313757,9.36795319669637,8.03569073754054,9.69883702267175,4.81330234539988,5.79612128304484,8.5229812182724,6.47777939039004,5.78024103559785,1e+20,8.39054116973087,7.35130251762653,10.4014748051082,4.21375078156175,10.7737724470599,3.06807433779041,4.67591549519275,4.32378311445465,6.7255577061534,7.93523835318982,8.94554635168414,5.41548184416959,5.43003915810756,8.56015025548668,4.14780012176133,8.24998037252947,3.13264039981679,10.2464434204464,6.51181891334994,4.98351951806905,5.21244478961069,4.14395397101207,1.11167330427508,5.27171251628637,5.22080861758115,8.60547869602475,8.00767893883368,4.00571763705437,9.23308360380627,5.38784413418776,6.92082027213283,9.50776953997497,5.24972323640386,8.79491115723459,7.09612379277091,4.84674351460176,4.17872141859008,9.65540485763446,3.87736106215907,5.19364778464166,3.73091362332559,6.29707472980402,2.63931907076039,10.1368994112508,3.97234478342016,5.56201646326696,8.36490322407935,9.3671128098251,4.43521192702739,5.47795117884473,4.64634484120837,6.42238625605527,8.71081475796732,5.30133102350294,5.98829817774159,10.7037683381991,5.76764751412425,4.10154620436285,4.09071893310752,4.68401483772492,7.57011199631796,3.96013244374763,8.53987973689498,5.51847243356821,5.13457597671713,5.60415807927843,4.54516155853345,4.9911971436921,5.5580971208209,7.67597822279797,3.21865855153623,9.36539354070062,4.42597238398523,6.07720697964643,8.60150816311615,7.83208562978306,9.0700282140829,4.07389643680258,5.01300506779621,4.2896225594205,9.58790875492639,6.291192824645,5.13508155556116,9.77321915630752,6.61083015364408,9.40466459025925,8.25066565858311,5.57273655372126,5.79039530972763,5.78185871355156
5.44221916908245,12.3734996643528,4.58789538057297,6.20675367517512,7.65681876640257,8.06636852131372,6.43910212227102,6.40349879115742,8.05747441815713,8.39054116973087,1e+20,3.44471401155083,11.1018877759398,8.34265490050342,8.31942391876357,8.46994568696997,7.89838151586887,8.01938678123353,8.70350137895503,6.02764030699143,10.0810186886324,8.12034203925801,6.80701094432801,13.2415019881186,7.6260489331517,10.9259938794616,8.1744989493502,8.41000206443349,8.16613361821419,7.4693508033928,8.19528400304699,8.01417483003278,8.42007220392079,7.05969389411316,7.51590950633143,11.930774622226,10.926791485949,7.5339266185686,5.59580479082951,7.48951263647613,4.80370247841043,4.49082637845036,7.81338413349504,5.94079354291233,9.77114737292133,7.54982124688927,9.99049443148548,8.05380296607015,7.74496127482951,9.92491994216676,7.81117852566463,5.63126431973366,8.26264369777162,7.73719337173029,7.57323078291007,6.5569121691105,11.8813016394057,6.09260132145896,7.43475579309116,7.09682497897509,7.66222211323759,10.5800558515435,6.56682946923188,7.99172589045929,7.54149277730433,12.2531244894603,7.62829572204014,8.63778350040313,7.5692228323146,7.13966307082873,5.5371417435313,8.18519587185065,6.22350739678097,8.03166509184121,7.70960393682622,8.22980484129804,8.03639494619938,7.42095014723358,7.32529365269827,5.74140012736644,8.5101211005965,12.0246534415349,7.64992609514815,7.46565352137024,5.69254148635786,5.97376180486048,12.2795691258214,7.82854735022118,8.31490187375345,9.30036495198207,7.55605378958095,7.63942751748706,7.24876353452462,6.40831301335397,6.53147224016315,4.28501108588274,11.9661334283864,6.86860351265627,7.18042594265618,8.45492742425823
5.25261408106153,11.589136296802,3.96372472008312,6.18217721017743,6.23838610474827,6.49459918425955,6.65952585604878,5.52521352106139,6.75797672859346,7.35130251762653,3.44471401155083,1e+20,10.1895962050001,7.5936345564611,8.9965805178132,7.74256760695466,6.73463178499517,7.27934419382012,7.16746902117592,5.75521060953312,8.87062371367113,6.21889665279225,5.83589459092407,12.6513572757342,6.3131356700223,9.80323887610858,6.96076906122678,8.1278348594658,6.239643198865,6.11961413533365,6.78423913735728,7.18701723800581,7.53838552731906,5.45858313146828,6.51686849833671,11.2601479080546,10.0896143467247,6.59089961962275,4.97386423637848,5.80795761697233,4.30064157379882,5.36810848777038,6.14235709917181,6.3363573551265,8.60277213270157,6.45900432312577,9.17545292896029,7.63116002053233,6.53188321436992,9.06199945072561,6.67535966915869,4.9007596800536,7.28674449509512,6.8513162039831,6.44138472490942,5.21441800242551,11.1704277806314,6.49669383590046,5.9611675274673,5.45240360786414,6.94499190151662,9.98509114415051,7.39618193294983,6.7101350081605,5.92233931902601,11.3546927141249,5.97464706496411,7.35922466695328,6.2903286340378,6.021872852247,5.08192156333988,7.10997354740359,6.4878832949074,6.5686876175284,6.37605576305343,6.52734602219794,7.27444988276768,6.12678803273403,6.66812477195676,4.68511315684481,6.95885382845339,11.1093191133742,6.65864315764361,6.85980947815239,6.14242640754532,5.92189008743866,11.674389348483,6.86569042767312,6.9784202554849,8.07257004744965,7.58595744579222,6.01823371898759,6.01735273320013,5.43088999665862,6.14244662786283,4.83863281152302,11.5111457980942,5.50155047536388,5.49008782128802,7.4302925473496
10.7222463588896,5.58861344339762,9.98850491167732,11.6491713730377,10.2473938813798,7.72265821327938,11.7619213520228,10.5337129568057,8.03442310709532,10.4014748051082,11.1018877759398,10.1895962050001,1e+20,10.8163279561204,13.6235514226463,11.3484910745458,9.63915167020462,10.7743519210302,7.16668114287275,11.0697191708837,4.60122243819278,8.01200395444331,9.91819377746033,9.5162889898431,9.65334379823111,3.79627882513483,10.2407844859693,9.19574475481009,7.89912143940421,9.52044574282321,8.73673218245202,9.97994389286481,10.4418727842867,9.17202756182043,11.0000285504218,6.64597043637933,4.71256308701356,11.0445910538187,9.63528686726106,9.25557219239511,10.9721737733647,11.3724509117763,8.03399449828722,11.6780734922915,5.70565871891556,10.6130730975908,10.6675658403267,10.7798229485688,10.6208060847901,7.62607220060103,10.9142325804967,11.0144996264257,10.8178058118321,6.75480017650451,10.3399200277683,9.81762953546,6.86644990370849,11.4341849147826,10.1606987072625,8.94773298269693,11.262049460435,9.55062027553682,13.0020708127992,8.64541266585923,8.23297075901468,3.00870306044345,7.86782492666836,8.73453549978676,10.3746450527274,11.0671600847523,9.66620582381057,10.2097981255925,11.5553501519648,8.33682231272137,9.18218766397698,7.95517235554052,10.9380813421498,9.10455660287787,11.9757590577225,9.87485077640439,8.58011823419418,4.5100878186504,10.5075208274964,9.18512936272467,11.8146314973273,10.8946792320305,8.1320777462748,9.79425813315997,9.01708534713818,8.462864416558,11.9381582205862,7.55394785802835,10.5596503868993,7.79250207614105,10.4055912568482,11.0624156133,8.25828636066274,9.04791684840047,8.0444636760709,8.21649087383967
8.98022238674574,9.22134721483837,8.4055876950831,10.1273786529206,3.46200391316793,5.61932682419362,9.55179476375746,7.24419512340251,5.07333108175921,4.21375078156175,8.34265490050342,7.5936345564611,10.8163279561204,1e+20,11.2609848446444,3.2796091457534,2.93344922380336,1.87361402017081,8.12241446697866,9.16022904581679,9.34026752586585,5.84454077324373,5.45187856370214,9.33384977199728,3.89871959859756,9.01858743312852,4.169306879884,11.4496598355394,6.40293457417194,3.89616657906242,3.89867256163275,3.35175320753203,3.91937653104648,4.53027119956987,4.77752408932965,9.15756628862534,8.49426836938365,3.62538569995725,9.96875680420279,4.49507026072737,7.7499635573429,9.73063151628694,4.9398987666381,9.84148454752824,8.05936632032839,3.41509135510535,5.86978271378563,10.6056589844875,3.89727091434408,6.95567071496485,3.42441242254222,5.83238334998154,3.78111274965769,10.3874116655428,3.68633482634804,5.01822624748765,8.90568211206727,10.1124463585734,4.51493209405226,4.77250328485701,3.96091480596906,7.19801408052026,9.28863059789522,4.44704800464135,5.84354108647431,11.3077410570859,5.65917742618039,4.95312254529447,3.9114177310166,4.74345519098777,8.59764524518429,1.57659623179614,9.42846388906711,4.98064308798243,3.79398096406457,5.21713592753478,3.69312768151885,3.85796462505508,4.13128232949595,8.8166377141826,5.44852011716449,9.51218056448252,4.22485773124598,6.76649733650846,9.64378043672648,8.77178621755706,9.93362890262878,3.62064069308073,5.30430118679886,5.77001180151627,10.5726956111617,6.21096037639116,5.29052662245556,10.1310858971259,7.45707742689621,9.76824607349631,8.74215779124029,6.71256908268113,5.64908164963215,5.88444058527508
6.476955623707,14.7610850588019,7.89475821082482,5.79256671291371,10.7415683243306,11.4509651256812,5.81178962292148,9.05185861302634,11.7367800718681,10.7737724470599,8.31942391876357,8.9965805178132,13.6235514226463,11.2609848446444,1e+20,10.9610900162857,11.2617004194461,10.7536141312593,10.7115908524529,6.46510542811406,13.3380111979918,11.2838297897433,10.4983228131987,13.4496424900714,10.8349806068708,13.4690226037647,10.7296179254195,7.4026632048314,12.3448117432482,10.9829125335175,11.865812918371,11.1673736630722,10.8969626921106,10.6432601140566,10.8160105531389,13.9182297981968,13.1537003040774,10.0642637532742,7.26263743492638,11.1083606017105,7.8625090052384,7.0360211388935,11.1803820676843,5.26553684427097,12.6128695098058,10.7730783208832,11.2808931570405,6.23668109650376,10.9745332739228,11.4797392319313,10.2266211297347,9.1782764367908,10.5814869607422,11.9270389554176,10.5042424377892,10.019371546731,13.8520983417463,5.11848011062902,10.306884022528,10.8094451588909,10.3536087557608,11.3295064491632,5.49541743502531,11.4554949770475,11.4733726004157,14.0698716192077,11.4523459705959,11.5954821134508,10.4419091800548,9.85939959273771,8.26754783682586,11.2039821470767,7.24723391157427,11.4946350618861,11.5884933541363,11.2980216493774,11.3572422378024,11.0212473033533,9.85002825919487,7.97483368060891,11.2525482443594,14.3373727194534,10.3695803174819,10.9136176785046,5.45536654989996,7.31217019745538,12.4620508286072,10.9091257288506,10.7177260346922,11.5517453989425,3.83410100032648,11.5528368218751,10.664989383254,10.6438744302244,8.97933384403458,6.42673263830312,13.7170357080467,10.3230627882552,11.0557886398717,12.2043001586973
8.26429111512963,9.70652728334078,8.50832881984954,9.90029196710846,4.65041391839203,6.61637614610889,8.78548593416759,6.56173492116569,6.3050272499914,3.06807433779041,8.46994568696997,7.74256760695466,11.3484910745458,3.2796091457534,10.9610900162857,1e+20,4.39869141023051,3.67636973456089,7.77490492187638,8.34358487520015,10.1509721779215,6.16559338822825,5.43954248691962,8.98361179935481,4.22878131807318,9.36393303093007,4.18819487862124,10.9730581624016,6.81955728134984,5.10640603641098,5.30101847504395,3.86469036530879,2.78267520877285,5.56007597302416,4.59335402769373,9.1244895947532,8.77853132231765,3.38509925584254,9.93519464314557,5.51476326318549,7.08741612975022,9.74872433199673,5.97328904136279,9.09993206330705,8.27800989884124,4.59853180504968,4.7481346731049,10.0894425936428,3.00837330909693,6.31008781888973,3.21080206972142,6.26992925693463,1.92966368268735,10.9322350461849,3.73110178088199,5.75634508252397,8.80282134188268,9.71783786870659,4.56791273254972,5.81008443487348,4.0523170370226,6.88660758870964,8.46522695724394,5.75140317482531,6.72308019258109,11.6936483384019,6.59150718879803,5.27831749491455,3.95067174830511,4.39924753589307,8.37872972560313,3.46403540408927,8.90225115578694,6.12349234390574,5.19138066694152,6.18941110960308,3.70266823180839,5.12796794529492,4.88851127344552,8.37716850826627,4.89694599183997,10.020759083987,4.15233080235554,6.39447001054531,8.85512927137542,8.07153182161351,9.59969960240859,3.93560793738939,5.8928492960294,5.15519912181833,10.0654857141396,7.09951165066117,5.04210964565057,10.5018953124482,7.02220292480989,9.65748041656763,8.71369189705575,6.63693043050762,6.46043627021513,6.19944212849765
8.2997722001591,8.70223358785293,7.59514448251423,9.80415492872325,2.51809740855512,4.08972825322012,9.26576377896619,6.65387693752139,3.14617755803534,4.67591549519275,7.89838151586887,6.73463178499517,9.63915167020462,2.93344922380336,11.2617004194461,4.39869141023051,1e+20,3.12214927705921,7.10073712573991,8.64619705105771,8.18157924008887,3.91325793059159,4.85137863734978,9.37537474761873,2.31038167395871,8.132910347266,4.33942687342583,10.7903656826543,4.45622824316576,2.3666583952891,1.53241656588816,3.8456174316864,4.52500689607273,3.18666258742929,4.58887472970727,8.65308044916595,7.84436307799403,3.18965465322246,9.06440671238502,3.07674284127843,7.28851261639652,9.17013385138329,3.40187573973789,9.41475153797193,7.06711135809936,2.67719527825593,6.46289650723853,10.3100812412658,3.02664447701616,6.51065193456748,4.02775181044706,5.37749253562949,4.3546951966075,8.88956286855613,2.61875689599339,4.00829769951281,8.48300693108602,9.62560883722706,3.57579548540878,3.31590385855635,3.99945163618277,7.41455075346813,9.4044534265277,2.74289310770607,4.37820479683442,10.2423738710576,4.30954262238778,4.63690881055794,2.81175566233816,4.57071507530989,7.66678223775058,2.54896593551261,8.80794129432869,3.07399998075947,2.00858356466152,3.42748733495992,4.61422205705009,2.22422995544491,4.4943833811391,7.9682783674914,4.86009788378292,8.8887983733761,3.79637751947366,6.04080199498905,9.25020784154345,8.32484998994905,9.63915259695412,3.91188873455317,5.12101932898607,5.57976521664845,10.2472946218823,4.68114414257109,4.71496169327154,8.70842092231308,6.98536187160778,9.26778971113049,8.51691785709774,5.74339077019024,4.2322762962509,4.81091110536445
8.32841077073563,9.45760271606084,7.86342598538497,9.65620130382315,3.50960274370635,5.57398145404188,9.09500247395607,6.75608096568163,5.06594773773574,4.32378311445465,8.01938678123353,7.27934419382012,10.7743519210302,1.87361402017081,10.7536141312593,3.67636973456089,3.12214927705921,1e+20,7.94673396492893,8.64765239429399,9.22232575271143,5.68259956444554,5.2419804797804,9.65307060847859,3.80821327784097,9.1246383642688,3.76951951218031,11.018731285239,6.33374436387727,3.58627314592592,4.05822352581247,3.1599505972985,4.09881385075559,4.44156471784199,4.78827772835502,9.39783670381965,8.62516253804769,3.54704503266111,9.62790942308921,4.54168076563304,7.33093241151567,9.31761916937818,4.67683677305736,9.24935019218001,8.10350588583661,3.16696710653964,6.18345195895564,10.2478303188122,3.9977333708208,7.0205171637219,3.03720035458986,5.22443925755632,3.58702485895015,10.0276014307057,3.59713247295484,4.70941896169619,9.1820750378131,9.47385556658099,4.24427763231648,4.61806673280505,3.81055402488533,7.42661197709005,8.72369150167918,4.35772935012513,5.68247696126499,11.4076030567738,5.59224005511235,5.10158448562065,3.63681540357843,4.54942544181748,8.1672413067582,2.23024307344571,9.08296074101366,4.93413426962043,3.78990591085421,5.23469460976135,3.93039286343303,3.75738613409143,3.90152195086839,8.44824542418377,5.37168851108698,9.76440939400622,3.95266943102998,6.61009273463854,9.06047676009485,8.3932381739837,10.123452122567,3.50434019979259,5.35252055075604,5.95253453388822,10.0145457611657,6.02512449024644,5.1747949920726,9.75848438970434,6.96780267980577,9.38893225467857,9.02200739821283,6.56937257623495,5.54679396675605,5.97739116359158
7.07010830942267,8.26695307251485,7.11464648676453,8.47838706452012,6.97982060450195,5.97369590192719,7.69717545694768,5.45739200769287,6.5856386396663,6.7255577061534,8.70350137895503,7.16746902117592,7.16668114287275,8.12241446697866,10.7115908524529,7.77490492187638,7.10073712573991,7.94673396492893,1e+20,6.90370783525317,7.21509406845368,5.36343533346035,6.23342209685322,9.23484555083377,6.52745224378584,6.75542447788714,6.90224619754857,7.34716851448021,5.99148782785265,6.91664962756893,6.73042686637478,6.91488481954926,6.99773047049249,6.43512403055327,7.26584710203605,7.32701639927517,6.37228212017581,7.38310866482248,7.23482261637848,6.58003445891018,6.32646169281937,9.48243513847047,5.87775705997021,8.41882915891245,5.40878210826294,7.62940530933681,7.65371804777654,7.54257923929214,7.11559042857373,6.13042408724807,7.22255637009478,7.2634399154535,6.96333372045332,7.5714438917444,6.91639955471889,6.44868066271609,7.20685546748574,8.66937552387145,6.40875049009571,6.39243886819084,7.53069533464703,7.28743508436846,9.05338076417739,6.65539718086465,5.94014291877658,7.427056068981,5.79318204676188,6.45290592341848,6.80881963663904,6.54979061713861,5.73251005566898,7.3603499269807,8.65182514754818,6.33814413456506,7.05252096614176,5.88695720557038,7.73532464397497,6.8132524574526,8.58072179587291,5.43487250312673,5.51465370399566,7.57587062974042,6.62494743421056,5.43721554434342,8.3673079550806,6.72236946225316,7.20782439600969,6.48417384933081,6.58049400106161,5.81701145171032,8.89465095015198,5.77724515635556,6.61025469855516,7.34626536778931,6.40999160386712,8.74648205117996,8.18997367256518,4.90923722867584,5.73185383660138,6.20471625163266
3.1601617950777,12.5175523898575,4.80400871010494,5.00551190964975,8.1956359400862,8.50440205539954,3.9398303610538,5.02538980323999,8.87673179415987,7.93523835318982,6.02764030699143,5.75521060953312,11.0697191708837,9.16022904581679,6.46510542811406,8.34358487520015,8.64619705105771,8.64765239429399,6.90370783525317,1e+20,10.6922510986008,7.77502331826896,7.26892157725518,11.7938164547462,7.81330468782479,10.8018926093491,7.83502022621468,6.26872329518389,8.59977347527878,8.26964160210961,8.92648520606135,8.36635926090222,8.11278529103225,7.86836672231291,7.96175545617315,11.281441990709,10.6181406233577,7.6062525418271,4.90702176796605,8.32652841975909,3.74480302606973,5.8902054346186,8.07310378880584,4.03574092150428,9.2857466221969,8.42942480725174,9.22904501566386,5.84479533544864,7.87881311426715,8.73081085806762,7.5671896702437,6.51809166567733,7.63027591096004,8.35456786497291,7.70561647315461,7.24512028855817,11.1838564754625,4.44940685216243,7.28214970800766,7.92973721207912,7.94582598662598,9.51453085856263,5.12088935146686,8.73533390932213,8.20574786643582,11.7250011332386,8.25607966907845,8.6485643012497,7.52563600526074,6.9838467473861,4.59743291003563,8.72412764815243,4.57284240766682,8.59025840104505,8.76404848699688,8.46910937947474,8.60661057977868,8.36563146544956,8.23444648356672,3.7645862702159,7.7100368094953,12.0242209861515,7.56365949494039,6.82794622336525,3.89921664040898,3.97402247358662,10.8348180381499,7.88593471475738,8.35659126128564,8.5585426498757,4.59886585856607,8.23273431382039,7.42622511944955,7.30851807962252,5.30644963469406,5.29445020689824,11.4004946477229,6.41499806246556,7.8616591172183,8.85656884764346
10.1232955080554,6.97852612652282,9.1090548383424,11.4151710437454,8.88494913737772,6.18181434707588,11.4716698105517,9.88000188516962,6.34718612238827,8.94554635168414,10.0810186886324,8.87062371367113,4.60122243819278,9.34026752586585,13.3380111979918,10.1509721779215,8.18157924008887,9.22232575271143,7.21509406845368,10.6922510986008,1e+20,6.60717795192433,8.87136427357304,10.011038850626,8.16749442664672,4.86540390229564,8.62235823560084,9.90891066543091,6.38144016793261,7.83709583837207,7.22881360236182,8.60547327897228,8.98804184922251,7.60955673363011,9.90961070677579,7.99521439484301,6.20702824652881,9.6999640222684,9.10820210747453,7.74304751491382,10.2877104770293,10.2837656235017,6.48585318475509,11.2601162292355,5.30394785213168,8.98291631582737,9.67641916621371,11.0877948816811,9.29448459774109,7.2619393690948,9.4895297877024,9.69950542453,9.55313811082202,6.03194018122276,8.91372389029653,8.40040129858379,8.25598605826037,11.1107906642223,8.86678384782306,7.36467621833999,10.0355813600583,9.6393591246189,12.5339368359302,6.99675795383698,6.46219187564141,5.83214574192034,6.01559068897127,6.72596146798755,8.95863909593348,9.88578869625131,8.86705426515595,8.6584104459213,10.6436206928256,6.68041478335216,7.40116303762089,6.52437234944409,9.70266460363456,7.4179911770084,10.6035741185908,9.26936012513659,7.05042385372141,6.5307964680266,9.36230012451005,8.78670506383762,11.3677379899666,10.6402392716244,9.56645395589622,8.47978110769719,6.91740610858001,7.11162878420026,11.6806200728769,5.78177017287336,9.4469445244561,6.93460777715387,9.6476239343215,10.4113874016348,8.86958887057678,7.61541536758684,6.29832159748339,7.19205881339635
7.28480061965217,8.6356332115454,6.83770440445495,9.39288405965522,4.57803075236618,3.6129179028688,8.82761570158403,6.38894517330274,3.32679524419803,5.41548184416959,8.12034203925801,6.21889665279225,8.01200395444331,5.84454077324373,11.2838297897433,6.16559338822825,3.91325793059159,5.68259956444554,5.36343533346035,7.77502331826896,6.60717795192433,1e+20,5.67465765164181,9.65492816890266,2.8692709099688,6.91930193076371,4.69863230983573,9.27664338831341,3.02512320101991,3.84353592972764,3.15992339204923,5.4442059273845,5.5444309244445,3.96776306441441,6.32758476731612,8.44667718999591,7.34599174326219,4.65663895493554,7.62391411439631,4.06312573112428,6.96613040121558,8.75167269309048,3.25015710032992,8.73571344856335,5.75275138403014,4.93870779653458,7.32280232603639,9.5613416143035,4.5136264279293,5.89707008221219,4.92530893570293,6.25596410382213,5.31309295241252,6.82694906538323,3.6884463343827,4.7717428959147,8.44733489489067,8.82582045220974,3.86501234212391,3.85458329658372,6.07097340538957,8.02104182250594,9.80183250100636,3.56487208174515,3.84227130119752,8.66073831414768,3.74408441334734,4.28505408882637,3.61785043259464,5.90185453698481,6.40514997094141,4.82381942085673,8.07986053373805,3.06774491906745,3.55059274837431,2.88560477411698,6.53246521339693,3.68750742996925,6.89511399472654,6.52897538352602,3.76495046947346,8.44399738819046,5.27450737729014,5.89014391437099,8.65734554390645,7.78417179998785,9.28906628848601,5.12285838682132,5.38313223676567,5.46239475429044,9.30784435786321,3.77849537133731,5.70760956836743,6.74013906116626,6.56675437196205,8.71864732467605,8.76222705957437,4.70766662439876,3.6739674603779,5.08780104700857
7.152220830226,9.29502643367071,6.80030356759878,8.97210813215335,4.42059900066218,5.53247838102488,7.14605311788192,4.71424656268489,5.49458135807423,5.43003915810756,6.80701094432801,5.83589459092407,9.91819377746033,5.45187856370214,10.4983228131987,5.43954248691962,4.85137863734978,5.2419804797804,6.23342209685322,7.26892157725518,8.87136427357304,5.67465765164181,1e+20,9.92818945033592,4.63406610364904,8.96398848305281,5.65518658208641,10.1260555137206,5.57138794473059,4.73963750089227,5.15052106612303,3.92880821845219,5.35460646086532,4.35714221520229,2.92622488438427,8.4502591667562,8.00359695906726,4.87857073382216,8.41725366323879,4.54089185491426,5.36801204783332,8.15232255224585,5.08492327917091,8.31897085209123,6.80895703070505,4.83808194837655,7.18868712844,9.13724478485695,4.64751595633149,7.25857503144956,5.30781098956329,4.69231244729353,5.18433121106979,8.64634813714489,4.6967087551409,3.88091104375287,8.29648154264492,8.66507789953909,4.30609483927242,4.41084085312631,3.92078802392874,7.12646896971544,7.74717875042632,5.17846849050081,4.89303551875514,10.4243436840288,5.01602253054304,6.15105430131782,4.731840318335,3.5119873883851,6.06651442895093,5.39138854551665,7.79390096859996,5.48474178734555,4.75128401571742,5.74335896274643,4.09355269341698,4.69054429563234,5.07217716873987,6.43225884024155,5.90822584159222,9.56220345922783,3.4470286185757,4.59092611588948,8.1409687370182,6.10582379090355,8.95349248646694,3.82589919368547,6.53887957945692,6.65076087930439,9.41377927005329,5.1594342512371,2.40677444891207,8.02106409871374,4.76465829951015,8.20814140122591,8.11589530710451,4.8135260069215,4.71782755411206,3.86082588394118
12.3249088928569,7.02906113862375,12.5435183686522,13.7003634202653,9.81136682153066,9.22861623001939,12.2255275480346,10.8135185196525,9.46080971295107,8.56015025548668,13.2415019881186,12.6513572757342,9.5162889898431,9.33384977199728,13.4496424900714,8.98361179935481,9.37537474761873,9.65307060847859,9.23484555083377,11.7938164547462,10.011038850626,9.65492816890266,9.92818945033592,1e+20,9.48697748274409,7.49163877310941,9.56897120735015,12.3637185545427,10.3090886529707,9.93214913837775,9.4041191640036,9.02732470482033,8.53842942258395,9.95185687916756,9.96004960919527,5.79244898323211,6.56627946486818,9.72915885401325,12.8654491079093,9.83482417124889,11.8067083914951,13.4604990887784,9.27135355401282,12.7370457762133,7.72973854789813,10.1666648664583,7.1635155073776,12.4212416579886,9.62050585265108,6.13766932640279,9.83627429395361,11.6570653269775,9.02711792798381,12.6767109692607,9.57405119916382,10.4614821143364,6.25716101721959,12.8814437817852,9.84219617055791,10.0234197577449,9.76866210010393,5.60066051019028,12.3996683890088,9.42324830377218,10.1207488251728,8.36280007367867,9.75768019725122,8.77075550232545,9.8004970667619,9.8604393721921,11.7518593390411,9.30932732418193,11.8629182219725,9.56398119413496,9.88536910400467,9.1826970196386,9.54586657300565,9.63575686532556,10.7019608548759,11.840254973263,8.81423251510993,7.358347433032,9.40392183810186,9.82321718370325,12.7573750231931,11.9028581305066,6.2585465266974,9.07798892834606,9.05090033200951,7.74550216853413,12.5764653125178,9.97419076493002,10.0602165200409,13.0465676322401,10.7403957228874,13.3481162521762,5.23381122513255,9.87898752633378,9.92453948236451,8.66779070469076
7.38305575795835,9.17704515090909,7.08481329404199,9.39652445324391,3.11745997052395,4.23843030475404,8.53709639520269,6.00375480892315,3.53721112259296,4.14780012176133,7.6260489331517,6.3131356700223,9.65334379823111,3.89871959859756,10.8349806068708,4.22878131807318,2.31038167395871,3.80821327784097,6.52745224378584,7.81330468782479,8.16749442664672,2.8692709099688,4.63406610364904,9.48697748274409,1e+20,8.12378901399395,3.54689203232395,10.1633445850224,4.18167098734918,2.80745203656803,2.7072112715209,3.97090778245358,4.05764160443385,3.35582415935541,4.70363063316749,8.85891056829859,8.0195684923328,2.13841905902288,8.5165952799265,3.45929123065753,6.58634344112462,8.70010316981309,3.49804629303065,8.59839365066041,6.86683846851907,3.16548385422282,6.31334449469742,9.80728297550631,2.58216001696493,6.13109657571244,3.17914959067396,5.19413809847246,3.67933153950659,8.54400564130489,1.11124996681248,4.02136428027525,8.74552353881447,8.80036205759621,2.42907867196968,3.4735232555664,4.04260248475117,7.46933851134554,8.83692288786502,3.25776174170043,4.31775079700935,10.2551596215955,4.26605823339596,4.07489564595705,1.32913770329368,4.30252596359939,6.81135649396628,3.32376142198036,8.09428131368627,3.3481306067351,2.58258972533876,3.74838726632263,4.84391897635925,2.74029809316104,4.85754082011047,7.11584295329481,4.11716685325539,9.26547095115427,3.66782138667011,5.78100653550254,8.43344462478622,7.60113945240695,9.61994418726941,3.85835164304416,5.14762256378749,5.32492086375997,9.33883508181691,4.65211341850643,4.38427021078417,8.20444251514801,6.16030695924668,8.76067503171087,8.66805853721301,5.10831985452105,4.13068866242654,4.69587382627821
10.5677269418258,5.16250833505543,9.93091138699889,11.8306349071687,8.73373131304465,6.44284896402691,11.7363734954682,9.8346571808915,6.96499527980427,8.24998037252947,10.9259938794616,9.80323887610858,3.79627882513483,9.01858743312852,13.4690226037647,9.36393303093007,8.132910347266,9.1246383642688,6.75542447788714,10.8018926093491,4.86540390229564,6.91930193076371,8.96398848305281,7.49163877310941,8.12378901399395,1e+20,8.51058962868751,9.91974791894446,7.28660556938959,8.19276883700457,7.41804537622462,8.54142200427849,8.34542205664845,7.97997280580944,9.76060605549391,5.56196220966349,3.31531948954439,9.35345214062953,10.0265245594612,7.98487099526896,10.4582643577754,11.5520156905488,6.56500455992916,11.5780054232875,4.4709274801123,9.09764949603062,8.03536639775665,11.0560707154295,8.9419956051193,5.14914039667382,9.21819436676997,10.072633218604,8.90489085321865,8.10808354722528,8.70789857022309,8.70031826247914,5.51175964281922,11.4488863939283,8.68951199511633,7.85428356549377,9.81298017094402,7.54486783261744,12.6499874866149,7.36726541668018,7.11267836057933,4.49803856803589,6.61160293794908,6.83583905280976,8.80413995383427,9.68451008723398,9.60074357400647,8.43676430104758,11.2741523015284,7.1535290118957,7.86371790581527,6.78565524949248,9.49724112493002,7.79862084678266,10.486069399634,9.73372688328175,6.88006547149437,3.39822828833587,9.14786082372336,8.53759234745095,11.6201758061589,10.8504746153262,7.5740711715654,8.45087280919918,7.16795578809946,6.33454680632283,11.7704761115497,6.62403868788558,9.42208967498242,8.82036217615393,9.83101108569758,11.2807221984241,6.7484975451656,7.98350378944332,6.92792779597664,7.16362216199028
7.57544475164171,9.59734574987187,7.40616650727134,9.32940332133518,4.52135196482205,5.57301794654069,8.70264603460223,6.15801562126498,5.49708472947196,3.13264039981679,8.1744989493502,6.96076906122678,10.2407844859693,4.169306879884,10.7296179254195,4.18819487862124,4.33942687342583,3.76951951218031,6.90224619754857,7.83502022621468,8.62235823560084,4.69863230983573,5.65518658208641,9.56897120735015,3.54689203232395,8.51058962868751,1e+20,10.1681235104233,5.8993921780955,4.43887128411139,4.77241387451724,4.24059910159683,3.11925454012912,4.93654087151354,5.51739171625673,9.18008742763471,8.34756311932226,3.58218251942207,8.84850654869531,5.0446523261001,6.82567625242169,9.22038578100963,4.52560292051527,8.73181329497085,7.34160096453216,4.51162123949276,5.6898026838386,9.68344321139436,4.11494671686272,6.18348177364066,2.67511465774311,5.66355810023344,3.63719036927131,9.40805550552282,3.44705382692798,5.07956062444915,8.92561907983562,8.94752023865973,3.81517515339072,5.02748986059754,4.77846008984006,7.37524238613684,8.77378034555408,5.10176952185426,5.48083644291985,10.8643338924225,5.31729834870809,3.56070279114805,3.26577117887083,4.95200823389323,7.54582462800992,3.70770467592397,8.51706476513424,5.23262676428082,4.74129626664144,5.26957936895251,4.8953447078445,4.64496968820083,5.32146917314354,7.52615719522957,3.29001157772428,9.54139931733507,4.55445254805033,6.43972658224929,8.54858218697076,7.91243036553752,9.84873837359638,4.08619346898225,4.63079794273909,4.7521660959772,9.30654726922626,5.72416058633276,5.43014784032728,9.11285507125109,6.42112237386353,9.15479756527827,8.9977902609682,5.78036036342483,5.28351491367341,6.09402905089755
6.09621470744608,11.7090735109081,7.03569694504027,5.40004375688083,10.6757366639495,9.97331931198507,6.92411228307491,8.51358675399534,10.3735880675676,10.2464434204464,8.41000206443349,8.1278348594658,9.19574475481009,11.4496598355394,7.4026632048314,10.9730581624016,10.7903656826543,11.018731285239,7.34716851448021,6.26872329518389,9.90891066543091,9.27664338831341,10.1260555137206,12.3637185545427,10.1633445850224,9.91974791894446,10.1681235104233,1e+20,10.1505032029955,10.3949347907361,10.7101256948527,10.8175090120846,10.4689696748306,9.98673878952707,10.9890982719483,11.2678796915778,10.1378774149535,10.4052242133675,5.56350325283748,10.4448612685232,7.54644992644751,7.85703937774751,9.84620205082214,5.82476585567761,9.93644618339581,10.853202297135,10.9633086207942,4.1405821272765,10.5707215715513,9.58510067725253,10.170407505132,9.5166762545759,10.2230185667834,8.59618689564811,10.314938736451,9.6959279993246,11.2917133132851,5.75745387124297,9.92960065074606,9.98180757419271,10.9044805325258,10.7863058812305,7.82177931179888,10.4170947758617,9.97070848852356,9.91341232189506,9.8232947711882,10.2901233784349,10.152910539879,10.2380750425256,7.26174656670094,10.9503608258435,8.31056691714171,10.1789531651047,10.7524550540329,9.77336193330245,11.3396916754042,10.3126791991986,11.10158288335,6.5854442579345,9.37805499631258,10.9325590806174,10.3802577443887,9.38413283902536,5.8789040737712,7.23081161282055,10.3683059609745,10.4229116966681,9.79819409222103,9.64870181313975,5.83532198183583,9.73859033231061,10.5552798788396,7.58125378587678,8.9435545097464,6.4661293247977,12.1982001318161,9.23958653004537,9.56763205331919,10.9092244626541
8.17564517901174,8.31404384912084,7.29262492690613,10.0340885779001,5.35139418375098,4.49649787470313,9.4157006968532,6.58195394562417,3.7896920437334,6.51181891334994,8.16613361821419,6.239643198865,7.89912143940421,6.40293457417194,12.3448117432482,6.81955728134984,4.45622824316576,6.33374436387727,5.99148782785265,8.59977347527878,6.38144016793261,3.02512320101991,5.57138794473059,10.3090886529707,4.18167098734918,7.28660556938959,5.8993921780955,10.1505032029955,1e+20,4.29240267618013,3.52982767139492,5.5779525627274,6.47034498168537,4.46881894064321,6.24006904552796,8.54189999084936,7.46921904616785,5.80078366536983,8.24778620179713,4.43848003450345,7.30242581095899,8.91445148749774,4.1573681297895,9.56508963291755,5.97382757684875,5.38560012195006,8.39271413914817,10.241506707326,4.78664938613885,7.16408998606032,6.04743714639894,6.72032315313094,6.18648749539136,6.49984057508615,4.95150713688871,5.41221664054997,8.5380892442451,9.80860701560071,5.31234866360529,4.27666495634271,6.30430040021181,8.76815650794022,10.1981887026763,4.22944594559786,4.3324819829248,8.80601946656104,4.1423265975725,5.362608001622,4.92427297030183,6.17913693022898,6.99839101971933,5.60418028356116,8.6771467124638,3.88639413580107,3.69569822600504,3.79944421509654,6.33490402913725,3.97719256952153,7.40070663134221,7.09214304423586,4.69944923559191,8.4504089960329,5.54802838777059,6.23328686610662,9.48858208768718,8.23058859932339,9.76824637641447,5.30389258127398,6.00446413042925,6.20055840378466,10.6073426008494,4.19661005975727,5.66240855673776,6.55493653779192,6.91956276581512,8.98624676385501,8.94740258543635,5.25266541801046,4.00068229057498,4.78630529330467
7.78415479713431,9.09094467217893,6.81919136330688,9.23271442063447,3.23571088312605,3.41244342015438,8.92029088156557,6.3882155601438,2.46184085525876,4.98351951806905,7.4693508033928,6.11961413533365,9.52044574282321,3.89616657906242,10.9829125335175,5.10640603641098,2.3666583952891,3.58627314592592,6.91664962756893,8.26964160210961,7.83709583837207,3.84353592972764,4.73963750089227,9.93214913837775,2.80745203656803,8.19276883700457,4.43887128411139,10.3949347907361,4.29240267618013,1e+20,2.5268597849483,3.71915886210681,4.91456426179477,2.3474408764537,4.80917089418842,9.10416356171247,8.04814798245156,3.7579319337905,8.4444839752728,2.56812763366799,6.94141799695039,8.63751809587345,3.44086066768486,8.97504902298862,7.0575498497146,1.56531107062647,6.99620757931725,9.93455176619121,3.66064730434988,6.85976258348734,4.23837653532484,4.48040217284709,4.74269939591519,8.31227094235994,3.17987154971771,3.18746861967586,9.00628760577488,9.14061650166543,3.76205398929635,2.41971074117822,3.91142568748834,7.7102220047388,9.14985356277054,1.60674668904922,3.63176147316445,10.2883717824141,3.64738845705341,4.87328240615878,3.15089618479744,4.48444804095118,7.12076458674107,3.47654377894343,8.52245189819314,2.16454697721707,2.15057868672424,2.75147900230118,4.96661790974508,0.888416301758933,4.03373564203944,7.47451727692497,4.95900745306123,9.13017333508215,3.6080822774897,6.07407478391535,8.83498549389196,8.02809569346223,10.0063448523517,3.83058418041717,4.77559378167401,6.00232207475238,9.81457879878047,3.96550513949503,4.76114077165603,8.06098583879985,6.62159110183276,8.72959292114037,9.0062117860278,5.4141529216887,3.59235063669527,5.02257044014461
8.52219068040582,8.13526282768006,7.67046535409111,10.128550403293,3.18866534612316,3.53018814442854,9.68604028953786,6.95413948793118,2.42188639688628,5.21244478961069,8.19528400304699,6.78423913735728,8.73673218245202,3.89867256163275,11.865812918371,5.30101847504395,1.53241656588816,4.05822352581247,6.73042686637478,8.92648520606135,7.22881360236182,3.15992339204923,5.15052106612303,9.4041191640036,2.7072112715209,7.41804537622462,4.77241387451724,10.7101256948527,3.52982767139492,2.5268597849483,1e+20,4.3281598456401,5.10744360385979,3.2083625908641,5.25339847178421,8.30615779005957,7.35892811163496,4.21068043088575,8.96092342825594,3.09519096295577,7.65913600551628,9.33878248719193,3.03393326392034,9.77704604334506,6.42676140002471,3.45002179881911,7.01162709088585,10.5476225744704,3.71664660343593,6.38758719133443,4.77646802916735,5.91061633889276,5.04318282153642,8.0339278198729,3.38018295863542,4.31709707954706,8.20310248587636,9.94323637455676,4.0115420716578,3.1681321437585,4.91251273287451,7.75295788591337,10.1007871680751,2.33275665701243,3.92175596504729,9.4010027282865,3.80429232372195,4.56757923565499,3.49867227690065,5.30581984979284,7.63693240849243,3.29452867481394,9.01905827849726,2.47791484882403,1.7803514739807,2.72535501550175,5.25557271915109,2.23206151892323,5.54054713883214,7.96251625458382,4.65701009136423,8.29753528141284,4.47175443915128,6.06727434500483,9.64813080448096,8.63197311329298,9.51376655616182,4.31039988337502,5.27416014259412,5.59581159108181,10.6189898166649,4.03077866917147,5.20669953891475,8.07273336030347,7.24168966652862,9.46957696999756,8.3931728553063,5.59579729075851,3.82526745845453,4.57346873311309
8.25485064668514,8.52250562879658,7.7246886294395,9.71328781333775,4.35300445644171,5.28111823073113,8.35274583006471,6.15341883022586,4.74331449270921,4.14395397101207,8.01417483003278,7.18701723800581,9.97994389286481,3.35175320753203,11.1673736630722,3.86469036530879,3.8456174316864,3.1599505972985,6.91488481954926,8.36635926090222,8.60547327897228,5.4442059273845,3.92880821845219,9.02732470482033,3.97090778245358,8.54142200427849,4.24059910159683,10.8175090120846,5.5779525627274,3.71915886210681,4.3281598456401,1e+20,3.95352229178789,4.42536435803643,3.68006218924381,8.01369599382721,7.47564695674735,4.16487837658822,9.34529004429439,4.53775038993129,6.88565246877971,9.22936242746447,4.89450917747787,9.25299054332252,6.69981870256722,3.64595365913045,6.13204763335689,9.88106782802198,4.02775456573665,6.54914752039595,3.78692604611863,5.59432337713365,3.69759193417124,9.50573006312369,3.98173239596869,4.8711073593335,7.79733622723436,9.59518754573901,4.55479389318165,4.54591711472032,2.71123649522222,6.16742827209422,8.56509848477735,4.19058825798024,5.44034513340743,10.3836085872424,5.31896584947141,5.00762067835294,4.06960740657136,3.89285085004775,7.44623445548623,3.38986971630737,8.72688006693575,4.69313629113557,4.01326007232069,5.01368153123341,2.52079807788149,3.73739132203276,4.69173555784427,7.84677160823255,4.94207821555315,8.96057204508148,2.35755878570804,5.04162699412487,9.08991631005493,7.49328284994141,8.73472536880277,1.15955634822686,5.41606586023126,5.68996031527975,10.1429868945372,5.70110390084934,3.769777207046,9.32190076261395,5.69679304691943,9.34633818794505,7.52360216855034,5.62003001445808,5.30654119482926,4.24366777566996
7.93212199669038,9.26420005180879,8.17109515799412,9.88026051484685,4.72776282982557,5.87293575991908,8.62821924068999,6.54432090807966,5.73815517686371,1.11167330427508,8.42007220392079,7.53838552731906,10.4418727842867,3.91937653104648,10.8969626921106,2.78267520877285,4.52500689607273,4.09881385075559,6.99773047049249,8.11278529103225,8.98804184922251,5.5444309244445,5.35460646086532,8.53842942258395,4.05764160443385,8.34542205664845,3.11925454012912,10.4689696748306,6.47034498168537,4.91456426179477,5.10744360385979,3.95352229178789,1e+20,5.23686478301358,5.09751069097788,8.59027425212652,8.02090898112818,3.88261928001523,9.47926107040176,5.35310152498675,6.99473415284304,9.47041736677211,5.27281923984631,8.91718994513869,7.21091182338313,4.72489191964281,4.36992530746228,9.91076062624442,3.68951984755321,5.31042134936163,3.68242631158267,6.27005698119189,2.52578801593479,10.1754611984217,3.87013586823163,5.57380757568315,8.35239782613483,9.49354538078662,4.41917383034651,5.43943426615383,4.48001356009423,6.52004176440055,8.70408252894558,5.2661469286506,6.03343240210776,10.7793717028294,5.80169705184732,4.09031979239841,4.03092281234003,4.65789529350774,7.7314350881264,3.83391861464192,8.62415278692023,5.55362040444052,4.9433845871354,5.71738617589313,4.3726484728647,4.88651683272696,5.3901832882296,7.85168463601106,3.37965979213554,9.37273774551385,4.35469482512425,6.16397636750932,8.72216653746233,7.93383002578302,9.14479500181316,3.94508993114247,5.11979915529438,4.36306875958747,9.77957748704492,6.33764141520406,5.10120233897788,9.828457662231,6.62960926407316,9.42477825788528,8.16351840604832,5.80549155873427,5.82550036900683,5.57145047989228
7.33534837464837,9.14435660804009,6.32835600976682,8.87761617607966,2.47637753465183,2.49499412998489,8.5282988979634,6.04925267181148,2.92149535382904,5.27171251628637,7.05969389411316,5.45858313146828,9.17202756182043,4.53027119956987,10.6432601140566,5.56007597302416,3.18666258742929,4.44156471784199,6.43512403055327,7.86836672231291,7.60955673363011,3.96776306441441,4.35714221520229,9.95185687916756,3.35582415935541,7.97997280580944,4.93654087151354,9.98673878952707,4.46881894064321,2.3474408764537,3.2083625908641,4.42536435803643,5.23686478301358,1e+20,4.52707417311974,9.01706143297247,7.93623204787288,4.26734703754269,7.82995093043459,1.08311888020229,6.5116284500333,8.1617484987257,2.8330975340496,8.56681465706743,6.77765281370983,2.96179111850132,7.1815617151243,9.57841067352654,4.23165850809358,6.77587083422506,4.77953193727682,4.2014853380539,5.15180234683027,7.76489635276631,3.72675641617677,2.40621844024026,8.9721347197071,8.72968270603119,3.09126433577746,0.623314536347757,4.62699423763861,7.72825467966196,8.96639209807039,2.55593015983928,2.8350108977405,9.9235194708654,2.89803586293587,4.99586213561996,3.80076279587918,4.14583030514489,6.48615826023625,4.05427245443702,8.02674599719017,2.6863738840812,3.03966417098508,3.13647837122723,5.51416289246935,2.23260034128715,3.94318321530384,6.85217700478921,5.02607343818799,9.03625105706425,4.33521241933993,5.8319260637229,8.43660817897177,7.58261409890947,9.83368225001527,4.36168937573631,4.83571100221607,6.07663091287218,9.41930953665794,3.25994236903833,4.30296418542588,7.34145226284006,6.40588708959798,8.21859212463346,8.98484816040419,4.87090024346791,2.70943464905223,4.5517490404558
8.06198673349112,9.64796656076736,7.69779806861311,9.35004133083324,3.97996811498727,6.09864086204351,7.7991259094689,5.51523141790301,6.00878401789174,5.22080861758115,7.51590950633143,6.51686849833671,11.0000285504218,4.77752408932965,10.8160105531389,4.59335402769373,4.58887472970727,4.78827772835502,7.26584710203605,7.96175545617315,9.90961070677579,6.32758476731612,2.92622488438427,9.96004960919527,4.70363063316749,9.76060605549391,5.51739171625673,10.9890982719483,6.24006904552796,4.80917089418842,5.25339847178421,3.68006218924381,5.09751069097788,4.52707417311974,1e+20,8.83164979536871,8.57749200120229,4.38203527546542,9.31060586393677,4.51447439773328,6.109699968687,9.03831366928735,5.57147006960906,8.99934125326085,7.76991834045967,4.49552782015584,6.74882042545407,9.51198488341072,4.1280913677587,7.67933496802042,4.93615331181692,5.363688249649,4.83320353530031,10.1171675000578,4.50147157822171,4.83564862373286,8.52580488061401,9.392929932968,4.20432959883095,4.68539985302078,2.89173054666639,6.97149094878033,7.93274711969671,5.5325051464544,6.12462202480303,11.4302771395484,6.14681522590565,6.46403799794332,4.53688751876436,2.49825659387002,7.41009547656646,5.02886536491958,8.60200894139654,5.92902982784823,5.06308140792653,6.09687038721267,3.15658489465671,4.87561216504684,4.06558686037231,7.59983054519045,6.32665419095791,10.0167700079542,2.87737408829777,5.24671566140761,8.77744865775174,6.93591382177181,9.32029388712761,3.58756437987469,6.64031257595083,6.6981296355857,10.0239678951894,6.44315068930286,1.94871060366379,9.57144632804382,5.7858778459021,9.0195142444763,8.42188134675146,5.8713126938015,5.91991567739179,4.54095283736761
11.5764815505944,4.08189555020617,11.3004343081571,12.8044787522266,9.23949503040818,8.0226795097713,11.2341630506568,9.74091007654578,8.28083412683064,8.60547869602475,11.930774622226,11.2601479080546,6.64597043637933,9.15756628862534,13.9182297981968,9.1244895947532,8.65308044916595,9.39783670381965,7.32701639927517,11.281441990709,7.99521439484301,8.44667718999591,8.4502591667562,5.79244898323211,8.85891056829859,5.56196220966349,9.18008742763471,11.2678796915778,8.54189999084936,9.10416356171247,8.30615779005957,8.01369599382721,8.59027425212652,9.01706143297247,8.83164979536871,1e+20,3.27412113007139,9.62379042878043,11.6122606021948,8.92313242738707,10.682129394721,12.6767703790207,8.10514215328403,12.2925809168582,5.03978568732578,9.67087489577261,7.96810445429945,11.4707139775004,9.23763158640371,6.0123962979303,9.63857931435948,10.8439463686141,9.04767792438007,10.4569216951192,9.20698169261035,9.60501403380304,2.42539856912952,12.3480566011902,9.28647676848526,8.97993031116585,9.14014757169041,5.04915046657059,12.2141139646021,8.43931807854218,8.76186153239819,5.46494326854643,8.39092145706102,8.07379465293438,9.36254130188095,9.3703416367916,10.49151125731,8.91361397575063,11.6673886604678,8.46251279610282,8.89855101558039,8.11296409449027,8.59051998181193,8.76454331946848,10.6167227405975,10.5965165626532,8.06559412204112,4.63989529458927,8.44828553975442,7.38270000003992,12.2815837376343,10.4711084202201,4.55396794162333,7.94312124383738,8.4830478904712,7.17239383634213,12.6025925720338,8.46312233082022,8.73882488522975,11.0247343696356,9.39642541861106,12.4092043619659,2.74817984962477,8.70807009774735,8.60568928567028,6.6167557902474
10.647035585241,3.61859829340702,10.1145645687452,11.6638357951132,8.4387974726111,6.75209610384704,10.9048643895055,9.21595334318598,7.11314994561466,8.00767893883368,10.926791485949,10.0896143467247,4.71256308701356,8.49426836938365,13.1537003040774,8.77853132231765,7.84436307799403,8.62516253804769,6.37228212017581,10.6181406233577,6.20702824652881,7.34599174326219,8.00359695906726,6.56627946486818,8.0195684923328,3.31531948954439,8.34756311932226,10.1378774149535,7.46921904616785,8.04814798245156,7.35892811163496,7.47564695674735,8.02090898112818,7.93623204787288,8.57749200120229,3.27412113007139,1e+20,8.97842861326949,10.4161952529553,7.90003576210339,10.0134314843855,11.7008769393947,6.86195382743763,11.5297392638388,4.04075851085159,8.75388442002477,7.57506785460403,10.5807427371207,8.62962486842783,5.23520614196302,8.90562588258492,9.87062118430888,8.51051707472124,9.08464824800256,8.47262879423214,8.58517591633148,2.94476526227037,11.4632695669908,8.50916072229564,7.86641818507181,8.70382355238642,5.75164973093998,11.8398305826306,7.32839962542026,7.48479696656276,4.72231894049413,7.03520967125967,7.04972354665259,8.59253403726073,8.85707202591437,9.57817094528833,8.13579084079313,11.2191162458594,7.29960116646773,7.86438564446402,6.93723893426863,8.33005265128696,7.68471840059332,9.8916111727204,9.78447125367926,7.13652904058998,2.54633438109808,8.01102447016181,7.2720948365556,11.5410118294793,10.0191448803928,5.4797870881561,7.40909577701126,7.26866721711882,6.27516566680755,11.8126743333727,7.10312358284685,8.40142800252002,9.65936735758173,9.01159341121938,11.4243277154125,4.63162082727886,7.99291007993245,7.30137888304409,6.19048579673597
7.34982915518614,10.1775260433768,7.32052144319366,9.04563966144418,3.37349193705765,5.61601446924856,8.12311220678456,5.89647818511642,5.18841995303853,4.00571763705437,7.5339266185686,6.59089961962275,11.0445910538187,3.62538569995725,10.0642637532742,3.38509925584254,3.18965465322246,3.54704503266111,7.38310866482248,7.6062525418271,9.6999640222684,4.65663895493554,4.87857073382216,9.72915885401325,2.13841905902288,9.35345214062953,3.58218251942207,10.4052242133675,5.80078366536983,3.7579319337905,4.21068043088575,4.16487837658822,3.88261928001523,4.26734703754269,4.38203527546542,9.62379042878043,8.97842861326949,1e+20,8.8747187866824,4.35988357452012,6.32224595830353,8.7447287848769,4.83353220825659,8.27072693646026,8.10381487870704,3.26925144041351,5.85684307656576,9.54717892162163,2.35650408624556,6.76438527733548,2.51326079461234,5.01280907700315,3.20069826078272,9.96769566436667,1.12967381505609,4.47127453087301,9.41179652167602,8.55070955721492,2.76435488149124,4.54037237621354,3.40700989410592,7.34725437224359,7.94706825115047,4.63460529594583,5.59817088987995,11.5577386286357,5.56955621357172,4.88155789911621,1.59493352296,3.79240898261168,7.27263742702859,3.45911947779829,8.07132195229579,4.91811998499236,3.96501221753086,5.1468074900205,4.52048331892779,3.84082680364101,3.96974850600696,7.40880325129826,5.01677942161243,10.2520699769941,3.46630319377759,6.30757795994564,8.04642308458452,7.4157034559509,10.0100166253133,4.13020467208346,5.45157606533875,5.70649857388176,8.93603529279134,6.06744226488882,4.43575950153571,9.37717400573104,6.25022656246091,8.68398136651576,9.21637944417942,5.88638145447236,5.3247843121747,5.83659044200465
4.41719864640704,12.2204903959677,3.98999175066658,4.85010551088963,8.83647841152337,7.97152461403532,5.83206526165116,6.89169927189858,8.45092148495676,9.23308360380627,5.59580479082951,4.97386423637848,9.63528686726106,9.96875680420279,7.26263743492638,9.93519464314557,9.06440671238502,9.62790942308921,7.23482261637848,4.90702176796605,9.10820210747453,7.62391411439631,8.41725366323879,12.8654491079093,8.5165952799265,10.0265245594612,8.84850654869531,5.56350325283748,8.24778620179713,8.4444839752728,8.96092342825594,9.34529004429439,9.47926107040176,7.82995093043459,9.31060586393677,11.6122606021948,10.4161952529553,8.8747187866824,1e+20,8.30146753603231,5.70899763980702,4.79440782470445,8.00582520456648,5.03612197875923,9.00307511665558,8.97733259739704,10.5714996484234,5.81918888462991,9.07845699081488,9.4552893368618,8.81549119567576,7.18111823097008,9.29865310947698,6.34315914644194,8.69280857801119,7.43207203824549,11.660149417021,4.86267062915864,8.28446280572728,7.80411351716902,9.30821363106949,10.5180673595431,7.36317093778786,8.59209262371272,7.71670625372657,10.6137984251285,7.72131451790407,8.898087545135,8.55663087887173,8.45264254434799,4.93886933235632,9.30620649513269,5.28016120935433,8.22360572514264,8.88279516637001,7.98734619830053,9.9209792239075,8.39421023974639,9.27901773785674,4.37704087645484,8.26897189638896,11.4373104481963,8.85594018429523,7.83844281750822,5.07922898593524,5.72771597637715,11.4140708168344,8.90435829032684,8.28240003877388,9.2737994846046,5.38320950412914,7.5713479418104,8.78816550663471,5.13059247794955,7.04136944072708,4.05624046301852,12.146725453374,6.67326153520388,7.3191616670405,9.40994896945076
7.90737448922009,8.97117368524535,6.87528714367016,9.30282056967469,2.37501630380057,2.65467425659975,9.04341479832688,6.29449558825763,3.02291882143442,5.38784413418776,7.48951263647613,5.80795761697233,9.25557219239511,4.49507026072737,11.1083606017105,5.51476326318549,3.07674284127843,4.54168076563304,6.58003445891018,8.32652841975909,7.74304751491382,4.06312573112428,4.54089185491426,9.83482417124889,3.45929123065753,7.98487099526896,5.0446523261001,10.4448612685232,4.43848003450345,2.56812763366799,3.09519096295577,4.53775038993129,5.35310152498675,1.08311888020229,4.51447439773328,8.92313242738707,7.90003576210339,4.35988357452012,8.30146753603231,1e+20,6.91298549336553,8.78224986265425,2.95605749106781,9.17931377648174,6.84917505244111,3.16269718199761,7.05555874875525,9.96697614558313,4.1605089080112,6.82727385076322,4.88707959563358,4.7048526109105,5.24289908380771,8.1078226000543,3.82832050571154,2.73161210546405,8.83604037615795,9.36829797909149,3.28407999388563,1.22955176058099,4.76862631123754,7.70971303405816,9.50117157150768,2.75725528050544,3.08479642124729,9.92223253356663,3.15960492703837,5.06494363577037,3.90569899882357,4.29112309967463,7.01739776222965,3.98519882945112,8.54069572622988,2.83099866292968,3.18680252736091,2.99199235643406,5.4847672723649,2.44187339938285,4.12982471655761,7.28629845630557,5.1019755207741,8.85105076925563,4.45673565414983,6.10746142450392,9.0595212016707,8.06074926597023,9.76707545214118,4.48824610809482,4.92475797151891,5.99943568143221,9.94477464682278,3.45702438303772,4.37498743337944,7.79999173993998,6.77246917167265,8.79289550632963,8.8736496528688,5.16840257817204,2.94622646288511,4.58594031511126
4.13478566171987,11.823094102598,4.41770532553351,5.93082954205209,6.72287682467139,7.53798526577252,4.46836808558613,3.67170271546566,7.8355318239951,6.92082027213283,4.80370247841043,4.30064157379882,10.9721737733647,7.7499635573429,7.8625090052384,7.08741612975022,7.28851261639652,7.33093241151567,6.32646169281937,3.74480302606973,10.2877104770293,6.96613040121558,5.36801204783332,11.8067083914951,6.58634344112462,10.4582643577754,6.82567625242169,7.54644992644751,7.30242581095899,6.94141799695039,7.65913600551628,6.88565246877971,6.99473415284304,6.5116284500333,6.109699968687,10.682129394721,10.0134314843855,6.32224595830353,5.70899763980702,6.91298549336553,1e+20,5.88711313987171,7.00483627706478,4.97431185901296,8.65886405059043,6.96682084845691,8.48966697923066,6.72162472534344,6.46862985899999,8.52560641743655,6.39305181056504,5.07482626375683,6.55248436821067,8.42488079462535,6.44536945222124,5.77873056694446,10.522495849307,5.47811181790104,6.02236824527313,6.60969722160943,6.33899904547619,8.86280154137711,4.95883546736931,7.58912569762975,6.96408222195447,11.7422170939092,7.03528567821019,7.69227766265855,6.28916519102465,5.18896791394112,4.04261954178093,7.40367967483618,5.52654881190613,7.55472545136312,7.33764890121947,7.5383994998657,6.9242325244768,7.04304485064409,6.75083714078961,3.52807408727755,6.98614403716837,11.4825620715459,5.99734796068853,5.73449135577948,4.60297649983844,3.71251051181642,10.5583247200523,6.47085490639057,7.44673203265972,7.85355595005146,6.4690125903822,7.15557499425244,5.60077571420302,6.91179308448658,4.60801980625629,5.27700847244256,10.7124028706581,5.34238780583175,6.60415502575391,7.42511599268693
4.94884723952339,13.1864733682625,4.89787463169788,6.4682032585753,9.03493502063277,8.86200149135761,5.7090583951241,7.41199379270008,8.9340110130648,9.50776953997497,4.49082637845036,5.36810848777038,11.3724509117763,9.73063151628694,7.0360211388935,9.74872433199673,9.17013385138329,9.31761916937818,9.48243513847047,5.8902054346186,10.2837656235017,8.75167269309048,8.15232255224585,13.4604990887784,8.70010316981309,11.5520156905488,9.22038578100963,7.85703937774751,8.91445148749774,8.63751809587345,9.33878248719193,9.22936242746447,9.47041736677211,8.1617484987257,9.03831366928735,12.6767703790207,11.7008769393947,8.7447287848769,4.79440782470445,8.78224986265425,5.88711313987171,1e+20,8.74193189391386,4.78109336663011,10.2304359756181,8.86608890159739,11.1828921251931,7.69914435092123,9.04507955749519,10.4525156850089,8.94231835240355,6.97044790871084,9.34813342022994,7.5423601321351,8.72528348961515,7.77972844360471,12.753390122621,4.73863440988328,8.55359075248087,8.17071517143756,9.01470829414031,11.3230949805975,6.07606280942576,8.98597555060353,8.49501823061404,12.4458092615116,8.53350466733888,9.44951199301648,8.7092616606152,8.47871141340889,5.62846485588553,9.45025841123567,4.31754671209882,8.91044336371749,8.81939245367057,9.14705503703102,9.53111155220665,8.53212096328195,8.78950137803093,5.78801381711829,9.20149852071727,13.0128646826315,8.8689507397901,8.49893767888785,4.71722878196136,5.89592642436915,12.6011464763772,8.98288458140764,9.13607278857634,10.3135110479702,6.07367529225631,8.48645800911855,8.58666455157337,6.09840564330206,7.07295033761834,2.57821013434431,12.6851469569221,7.52350004948377,8.09703236765316,9.37457588740721
7.56643655288432,8.3398812951913,6.70678372336513,9.52853786945885,3.27533809753235,2.3884327477993,9.07508717443588,6.27148118009919,3.21339608319003,5.24972323640386,7.81338413349504,6.14235709917181,8.03399449828722,4.9398987666381,11.1803820676843,5.97328904136279,3.40187573973789,4.67683677305736,5.87775705997021,8.07310378880584,6.48585318475509,3.25015710032992,5.08492327917091,9.27135355401282,3.49804629303065,6.56500455992916,4.52560292051527,9.84620205082214,4.1573681297895,3.44086066768486,3.03393326392034,4.89450917747787,5.27281923984631,2.8330975340496,5.57147006960906,8.10514215328403,6.86195382743763,4.83353220825659,8.00582520456648,2.95605749106781,7.00483627706478,8.74193189391386,1e+20,9.02751288388611,5.30392474912827,4.37535201870165,6.717312257908,9.92066297859912,4.77367962112384,5.44321645130329,4.97501603192113,5.34785081517694,5.38975985443681,7.17587646614656,4.08161202947532,3.73183038184179,8.02875616114945,8.99312617724401,3.56341693723946,2.67804900544911,5.59688332472717,7.3995149286167,9.71639337299076,3.3186119403111,2.75421203667225,8.85685392053587,2.64647828585412,4.08904617079247,4.03952174320766,5.20247417104482,6.66411212910927,4.08700472476593,8.29031655716298,3.09462486578172,3.2469676443498,3.34572808492767,6.09947905769224,3.38417276051287,5.64077456109753,6.96953626446082,4.27254750547953,7.9913358434647,5.06181817645965,5.88415342118601,8.92593065161261,8.01223867724749,9.34262493293678,4.74189337605202,4.53413267695568,5.21637672192523,9.63946283643472,2.79745579512801,5.08652762336684,7.09404430064125,6.45509584542697,8.8749657797864,8.21192705168841,4.70443991195908,2.72317754710286,4.26475599191418
3.07581678258113,13.221126554646,4.89673136121458,5.09650366226022,9.04323545490005,9.36160234730319,4.13553884283527,6.56198081092566,9.60882151052941,8.79491115723459,5.94079354291233,6.3363573551265,11.6780734922915,9.84148454752824,5.26553684427097,9.09993206330705,9.41475153797193,9.24935019218001,8.41882915891245,4.03574092150428,11.2601162292355,8.73571344856335,8.31897085209123,12.7370457762133,8.59839365066041,11.5780054232875,8.73181329497085,5.82476585567761,9.56508963291755,8.97504902298862,9.77704604334506,9.25299054332252,8.91718994513869,8.56681465706743,8.99934125326085,12.2925809168582,11.5297392638388,8.27072693646026,5.03612197875923,9.17931377648174,4.97431185901296,4.78109336663011,9.02751288388611,1e+20,10.5291841067964,9.00119792213921,10.2377288103898,5.78742591372232,8.7027657576176,9.76372555620182,8.27300334862101,7.00166144766163,8.42334163922181,8.98773955760256,8.44825314129776,7.98331307755339,12.3590640779179,2.09996758769945,8.0867036081745,8.63249827416915,8.75670796742737,10.4786324721773,4.21742938328299,9.45058088468703,9.06045100135502,12.4474279185356,9.12057559453797,9.53324467860973,8.28433392168052,8.0517655185603,5.2116317086487,9.52702746528425,4.87398453881615,9.37382866623661,9.43094425740637,9.40002462109147,9.62209952416629,9.01638519477218,8.68209157105607,5.09390951456728,8.72462561746855,12.9647315819419,8.53695148023053,8.19898336003954,1.57667809447379,4.74803281204086,11.6262927952292,8.92109022509222,9.16359610593546,9.6298084530201,3.9720558175507,9.17269783674708,8.553838109293,7.40626672387888,6.62195702195126,4.03800879314946,12.4023974673247,7.75797016265862,8.70170183771255,9.90856783980747
9.22812377624486,6.32416049516708,8.68874561330853,11.1478884709411,7.55157491498573,5.25864885772539,9.70918823299798,7.7978339473767,5.93592881193329,7.09612379277091,9.77114737292133,8.60277213270157,5.70565871891556,8.05936632032839,12.6128695098058,8.27800989884124,7.06711135809936,8.10350588583661,5.40878210826294,9.2857466221969,5.30394785213168,5.75275138403014,6.80895703070505,7.72973854789813,6.86683846851907,4.4709274801123,7.34160096453216,9.93644618339581,5.97382757684875,7.0575498497146,6.42676140002471,6.69981870256722,7.21091182338313,6.77765281370983,7.76991834045967,5.03978568732578,4.04075851085159,8.10381487870704,9.00307511665558,6.84917505244111,8.65886405059043,10.2304359756181,5.30392474912827,10.5291841067964,1e+20,7.9597023002391,7.31006274498124,10.3526014940002,7.73770487309864,4.44542892854309,8.04538477403741,8.68822919537106,7.72859170333367,7.41763536669617,7.42526634373986,7.3724275753156,5.05312676890832,10.4536296555265,7.36139945233625,6.65868578979585,7.99816798011044,6.20280704036396,11.1270276726784,6.32394360067957,5.77980424446277,5.74990808436253,5.37255364167166,5.76558220505692,7.52450327176797,7.90251188712246,7.62113147427633,7.35711969680007,9.33538734605724,6.0435849583729,6.78731786255723,5.85549891910469,7.70655208398009,6.7304899359954,9.33562822470049,7.90074465562067,5.73125108366056,5.71297036208005,7.13752960267366,5.95860802551447,10.5288168981449,8.62422262275833,6.73258679497921,6.44781068227112,6.26711661482108,5.82195727863185,10.8457811749674,5.37113202323285,7.15485505489227,7.92396852594268,7.17835977904578,10.3893597125455,5.47201805031561,5.53827587026301,5.6544352643213,4.67706412119095
8.02609776970494,9.80052808631473,7.1838885199993,9.25473432926516,3.19384607252808,4.48587501003465,8.88866354608571,6.52538618384664,3.76495489273262,4.84674351460176,7.54982124688927,6.45900432312577,10.6130730975908,3.41509135510535,10.7730783208832,4.59853180504968,2.67719527825593,3.16696710653964,7.62940530933681,8.42942480725174,8.98291631582737,4.93870779653458,4.83808194837655,10.1666648664583,3.16548385422282,9.09764949603062,4.51162123949276,10.853202297135,5.38560012195006,1.56531107062647,3.45002179881911,3.64595365913045,4.72489191964281,2.96179111850132,4.49552782015584,9.67087489577261,8.75388442002477,3.26925144041351,8.97733259739704,3.16269718199761,6.96682084845691,8.86608890159739,4.37535201870165,9.00119792213921,7.9597023002391,1e+20,6.76604176886028,10.0377691936963,3.45237061798059,7.35023618208822,3.81708792411181,4.2959590993162,4.43358730124787,9.48250980698984,3.1101474489049,3.48334800176398,9.50633126460751,9.26459896698506,3.82731206463951,3.17837954238696,3.2801372460651,7.68913843662249,8.75468207332237,2.80239650520254,4.5560882352501,11.3143732294076,4.57194625858307,5.34304117066306,3.06409849949638,4.11268504002722,7.61464330912035,3.3980600147392,8.75966566503209,3.45882215761006,2.91125990939947,3.95813258491175,4.63121798203932,1.90983697572248,3.05329697549926,7.90266416993201,5.54132143815629,9.87007334742082,3.33772326173076,6.43982342527014,8.81390409606704,8.10817133112029,10.3968801187235,3.90584296413765,4.97368319689705,6.28854548974176,9.88746341631742,5.08649007980078,4.72248022078088,9.0514392941102,6.84525528487952,8.89876429644732,9.39628617654612,6.01175386417373,4.48154837250096,5.65641980302479
9.43466327353222,9.06380721436586,9.70214074725342,10.7530106261219,6.50651761921962,7.24833854899759,9.83702402727519,7.8902837523815,7.62046598802999,4.17872141859008,9.99049443148548,9.17545292896029,10.6675658403267,5.86978271378563,11.2808931570405,4.7481346731049,6.46289650723853,6.18345195895564,7.65371804777654,9.22904501566386,9.67641916621371,7.32280232603639,7.18868712844,7.1635155073776,6.31334449469742,8.03536639775665,5.6898026838386,10.9633086207942,8.39271413914817,6.99620757931725,7.01162709088585,6.13204763335689,4.36992530746228,7.1815617151243,6.74882042545407,7.96810445429945,7.57506785460403,5.85684307656576,10.5714996484234,7.05555874875525,8.48966697923066,11.1828921251931,6.717312257908,10.2377288103898,7.31006274498124,6.76604176886028,1e+20,10.3474941413826,5.81843793800435,4.48317759152759,5.77007123748879,8.15793459992852,4.86570568695104,11.7709223215055,6.04761484825916,7.37916358611198,7.52645576092491,10.6069804921841,6.4301160634898,7.40308778482218,6.32179221378189,5.36355794351657,9.8390309627119,7.16959266514306,7.58531369712843,10.6244509476269,7.15739599981365,5.63431791465819,6.19347127568907,6.37877281549897,9.39323681991778,5.86919210561077,9.9772906941684,7.40451041923405,7.24116690788296,7.05401605967146,6.22631986357517,6.93617599295212,6.99562687418443,9.23513311827665,5.70337314855457,8.64225520238574,6.17259854213695,7.6483054581958,10.0833043537248,9.30180799748457,8.30246850501647,6.14350395106643,5.41781151717903,4.05651310993736,10.4562898401548,7.74982158347976,6.98913319054791,11.5205100961668,8.24790864971058,10.9661669506266,7.47260613386172,7.34069693158692,7.29195016510395,7.23304958219557
6.14437522501438,12.1818602585719,6.92637091166546,4.16488553146929,9.96734963064114,10.1366166380377,5.30862532291739,7.71320774932095,10.4820186561066,9.65540485763446,8.05380296607015,7.63116002053233,10.7798229485688,10.6056589844875,6.23668109650376,10.0894425936428,10.3100812412658,10.2478303188122,7.54257923929214,5.84479533544864,11.0877948816811,9.5613416143035,9.13724478485695,12.4212416579886,9.80728297550631,11.0560707154295,9.68344321139436,4.1405821272765,10.241506707326,9.93455176619121,10.5476225744704,9.88106782802198,9.91076062624442,9.57841067352654,9.51198488341072,11.4707139775004,10.5807427371207,9.54717892162163,5.81918888462991,9.96697614558313,6.72162472534344,7.69914435092123,9.92066297859912,5.78742591372232,10.3526014940002,10.0377691936963,10.3474941413826,1e+20,9.86103653336236,10.1385387827985,9.35525380773525,8.71200735489294,9.57220041007971,10.1276678188545,9.73199773398811,9.17570097599249,11.2899538590283,5.91418834675574,9.41627711636343,9.67999261166982,9.51101923533332,9.98763638361216,6.387925417554,10.2883222120204,10.0889074600915,11.3414965323497,9.94972435321644,10.2636519328366,9.56552995269506,8.88661482761047,7.32948815445809,10.3024289909509,8.11322273066388,10.194217067197,10.4783350899654,9.78230211111298,10.0029734790765,9.93133681847115,9.81847200196844,6.43506898862253,9.51514978635225,11.5560424695076,9.13114220684238,8.82346467305456,5.82265842409573,6.00769581988497,10.1024740655436,9.50218222810904,9.41928590349307,9.60789453366242,5.36363494904687,10.0644093808237,9.30343411704139,9.03114797764648,8.21159679703252,6.10222152374467,12.1517451918902,8.97044839724955,9.61869280738433,10.5775146074669
7.62567587351102,9.64787907217253,7.54368291476364,9.45248250113724,3.58132430256238,5.54143518942566,8.56599784203709,5.81917286623275,4.94946748207614,3.87736106215907,7.74496127482951,6.53188321436992,10.6208060847901,3.89727091434408,10.9745332739228,3.00837330909693,3.02664447701616,3.9977333708208,7.11559042857373,7.87881311426715,9.29448459774109,4.5136264279293,4.64751595633149,9.62050585265108,2.58216001696493,8.9419956051193,4.11494671686272,10.5707215715513,4.78664938613885,3.66064730434988,3.71664660343593,4.02775456573665,3.68951984755321,4.23165850809358,4.1280913677587,9.23763158640371,8.62962486842783,2.35650408624556,9.07845699081488,4.1605089080112,6.46862985899999,9.04507955749519,4.77367962112384,8.7027657576176,7.73770487309864,3.45237061798059,5.81843793800435,9.86103653336236,1e+20,6.53961659846062,3.34355772448271,5.39511453620756,2.79340077374665,9.60788820404251,2.28963345575699,4.66560862344227,8.97431749547449,9.26942768781367,3.49034054363381,4.4278482487844,3.55929774985374,7.52282009889452,8.48420563176487,4.52128859381693,5.44141380778291,11.1851842430238,5.34834786140154,5.04336319935463,2.48602537076206,3.8729095934689,7.47882332692031,3.67689393459819,8.35574488131069,4.76587002624424,3.66620594209117,4.86962813177738,4.15199312130648,3.64522625920379,4.58300282775136,7.4991192980062,4.4129501372732,9.81072930098237,3.40224848231968,6.1133603218576,8.46781484544422,7.65095838827038,9.87751020701196,3.95953247794799,5.5042793334967,5.15292917802647,9.82072162102049,5.84002459816175,4.21622746108866,9.14860753461687,6.40045662418803,8.98505349225308,8.99195206163608,5.79030144271112,5.10704245017102,5.37706625393525
8.68179676004094,7.1928183713921,9.00005537004716,10.7540511873395,6.86120040551106,5.72783590598492,9.67765880064261,7.82482969813984,6.37484375316416,5.19364778464166,9.92491994216676,9.06199945072561,7.62607220060103,6.95567071496485,11.4797392319313,6.31008781888973,6.51065193456748,7.0205171637219,6.13042408724807,8.73081085806762,7.2619393690948,5.89707008221219,7.25857503144956,6.13766932640279,6.13109657571244,5.14914039667382,6.18348177364066,9.58510067725253,7.16408998606032,6.85976258348734,6.38758719133443,6.54914752039595,5.31042134936163,6.77587083422506,7.67933496802042,6.0123962979303,5.23520614196302,6.76438527733548,9.4552893368618,6.82727385076322,8.52560641743655,10.4525156850089,5.44321645130329,9.76372555620182,4.44542892854309,7.35023618208822,4.48317759152759,10.1385387827985,6.53961659846062,1e+20,6.72862004002959,8.41114108051799,5.79945622458262,9.30305320132051,6.3696096732289,7.22840781703724,5.84742152953333,9.90039146431846,6.43569248291047,6.81125621493794,7.45300590031787,5.42650233980664,10.2943019853493,6.36862559184844,6.46636224076496,7.56820564424993,6.06776150396797,5.17613019519877,6.50975778363641,7.30222018454531,8.20261276940626,6.47211414895735,9.08431622162317,6.32091893291468,6.81944718406976,6.06353375167765,7.47118490797336,6.63707721459242,8.3015313067515,8.37499561372345,4.81841982335575,6.58375429585405,6.86953037338887,6.76102943330392,9.70610890945909,8.92403677877079,7.02136045742934,6.42030064843111,5.75409488059889,4.11599424075144,9.94243227910028,6.30282402324872,7.4308600774508,9.45693674389538,7.74536933312478,10.5047577945793,6.01309294422897,6.39797201134017,6.30022300690213,6.00103444397743
7.34392797370771,10.0570823898893,7.28499737823015,8.90930471637738,4.05848384042668,5.93293795074116,8.23611970638764,5.89239073631887,5.71551989207707,3.73091362332559,7.81117852566463,6.67535966915869,10.9142325804967,3.42441242254222,10.2266211297347,3.21080206972142,4.02775181044706,3.03720035458986,7.22255637009478,7.5671896702437,9.4895297877024,4.92530893570293,5.30781098956329,9.83627429395361,3.17914959067396,9.21819436676997,2.67511465774311,10.170407505132,6.04743714639894,4.23837653532484,4.77646802916735,3.78692604611863,3.68242631158267,4.77953193727682,4.93615331181692,9.63857931435948,8.90562588258492,2.51326079461234,8.81549119567576,4.88707959563358,6.39305181056504,8.94231835240355,4.97501603192113,8.27300334862101,8.04538477403741,3.81708792411181,5.77007123748879,9.35525380773525,3.34355772448271,6.72862004002959,1e+20,5.21102150112163,2.66350147450189,9.87884698291358,2.75628693021091,4.87081376563299,9.37532039768686,8.59760687375552,3.28680426369191,4.9278261649858,4.07300110108347,7.43027328451261,8.01893934472453,5.13406643283099,5.77980973933896,11.4963899207493,5.70061414070224,4.61060888232712,2.43382258863301,4.30030254310273,7.49743846117266,3.14621028147995,8.30798664578301,5.40338107369906,4.57742653665086,5.4380813065662,4.2209911950408,4.42112922786454,4.54678827957061,7.40553998768636,4.48388994994088,10.1190885530554,3.97528573429164,6.3972272505922,8.0463302679082,7.53435301903342,10.0456413179235,3.72235206925801,5.12129063514349,5.34769331745127,8.94225768913572,6.21231096623849,5.00887726895816,9.39520336425865,6.28613363845756,8.77825120882222,9.37568808390624,6.02393863489195,5.54286798505702,6.32493747695291
5.72037066066923,11.3455885123995,4.7781904045917,7.32071248203853,4.68639645663903,5.72713972479665,7.1199529827816,4.6874391188485,5.9234370766866,6.29707472980402,5.63126431973366,4.9007596800536,11.0144996264257,5.83238334998154,9.1782764367908,6.26992925693463,5.37749253562949,5.22443925755632,7.2634399154535,6.51809166567733,9.69950542453,6.25596410382213,4.69231244729353,11.6570653269775,5.19413809847246,10.072633218604,5.66355810023344,9.5166762545759,6.72032315313094,4.48040217284709,5.91061633889276,5.59432337713365,6.27005698119189,4.2014853380539,5.363688249649,10.8439463686141,9.87062118430888,5.01280907700315,7.18111823097008,4.7048526109105,5.07482626375683,6.97044790871084,5.34785081517694,7.00166144766163,8.68822919537106,4.2959590993162,8.15793459992852,8.71200735489294,5.39511453620756,8.41114108051799,5.21102150112163,1e+20,5.88167218081263,8.51900595293273,5.06969472348678,3.03490309618328,10.7287762358593,7.19387280627855,4.61274013314239,4.33342564605257,5.04278031236878,8.87626025916764,7.14455598392725,5.39881603223753,4.89355969315164,12.0154474267449,5.11720915176063,6.74446503452868,4.9180609038467,4.63476428668391,5.78830702786719,5.68663297889665,7.17175961262599,5.64392438516673,5.36731949088745,6.02725755696305,6.27016346773655,4.76275581200383,3.99541339925646,5.9542613014764,6.66549907856845,11.1028285839968,5.06700278394599,6.22723491777892,6.77395443551827,6.2303387239948,11.2898452181976,5.58220061220708,6.15120335548972,7.51813787129931,8.23934838534278,5.37899853463088,5.28079566857825,7.64031324193659,5.80563684987261,6.85244636124828,10.7540210908007,5.43076021421325,4.74168284383023,6.8241893129906
7.44132827608372,9.67449862230729,7.87271481294585,9.4370056122277,4.45519332582577,6.12553965170562,8.2561775598511,5.98443799556306,5.91160280017332,2.63931907076039,8.26264369777162,7.28674449509512,10.8178058118321,3.78111274965769,10.5814869607422,1.92966368268735,4.3546951966075,3.58702485895015,6.96333372045332,7.63027591096004,9.55313811082202,5.31309295241252,5.18433121106979,9.02711792798381,3.67933153950659,8.90489085321865,3.63719036927131,10.2230185667834,6.18648749539136,4.74269939591519,5.04318282153642,3.69759193417124,2.52578801593479,5.15180234683027,4.83320353530031,9.04767792438007,8.51051707472124,3.20069826078272,9.29865310947698,5.24289908380771,6.55248436821067,9.34813342022994,5.38975985443681,8.42334163922181,7.72859170333367,4.43358730124787,4.86570568695104,9.57220041007971,2.79340077374665,5.79945622458262,2.66350147450189,5.88167218081263,1e+20,10.189400758173,3.3479000681822,5.39010208739984,8.78896004330757,9.07156318019451,3.98762029383514,5.37876839696124,4.14451983086296,6.8957731856333,8.13955281865601,5.35190152452546,6.16889447613992,11.213816127353,5.99490266526256,4.89187781858739,3.44085345696098,4.26302296586553,7.55298421722125,3.61673453645526,8.35885430631222,5.65350695185837,4.90104538855383,5.72315495913816,4.11063279633505,4.77415369840356,5.10336851785673,7.58228024145866,3.9325271751127,9.86470432755203,3.9357273808694,6.02807792444166,8.19360329229376,7.52078465883978,9.4117544614629,3.66570914810685,5.49452445981249,4.72249737173612,9.38782338687866,6.53137248502425,4.8761902761427,9.75910603928806,6.29169664180304,9.22994961640451,8.69660346007977,5.96701147592111,5.89200139273536,5.93356319431127
7.5635051216001,10.2308947091728,6.47523482838152,9.45423610833754,9.2104671697712,7.01706262634009,9.51659624012947,8.39610491702449,7.16934813553174,10.1368994112508,7.73719337173029,6.8513162039831,6.75480017650451,10.3874116655428,11.9270389554176,10.9322350461849,8.88956286855613,10.0276014307057,7.5714438917444,8.35456786497291,6.03194018122276,6.82694906538323,8.64634813714489,12.6767109692607,8.54400564130489,8.10808354722528,9.40805550552282,8.59618689564811,6.49984057508615,8.31227094235994,8.0339278198729,9.50573006312369,10.1754611984217,7.76489635276631,10.1171675000578,10.4569216951192,9.08464824800256,9.96769566436667,6.34315914644194,8.1078226000543,8.42488079462535,7.5423601321351,7.17587646614656,8.98773955760256,7.41763536669617,9.48250980698984,11.7709223215055,10.1276678188545,9.60788820404251,9.30305320132051,9.87884698291358,8.51900595293273,10.189400758173,1e+20,9.2294418392561,7.97529117156552,10.7527577404236,8.74642430866225,8.82932139755175,7.45032895306763,10.4278403946839,11.532815082307,11.0186687878328,7.86816022226381,6.70254295752217,8.31667245926258,6.72710903837579,8.57672946891191,9.14544616503602,9.8791329686235,6.59749695666028,9.60105038923695,8.1052204615648,7.39197129711872,8.05959396738347,7.41872659044645,10.4407725910274,8.06557615107809,10.7208412790336,6.94323411666611,8.11190707548303,9.81455530213163,9.75992170157753,8.0179297327154,9.07482701903114,8.57577268055817,11.4986477649965,9.15127486751856,8.95937740276707,9.47958599430328,9.91125685621579,6.07266153958393,9.37125600812988,3.02849386507823,8.10507658058855,7.81667247748389,11.2409900742672,7.00030609868855,6.56174319470956,8.09381489265508
7.35082936933452,9.66410233874099,7.18975474370611,9.27398612986222,3.12483333398696,4.82657643226339,8.34315246603171,5.9238224398808,4.2983000989415,3.97234478342016,7.57323078291007,6.44138472490942,10.3399200277683,3.68633482634804,10.5042424377892,3.73110178088199,2.61875689599339,3.59713247295484,6.91639955471889,7.70561647315461,8.91372389029653,3.6884463343827,4.6967087551409,9.57405119916382,1.11124996681248,8.70789857022309,3.44705382692798,10.314938736451,4.95150713688871,3.17987154971771,3.38018295863542,3.98173239596869,3.87013586823163,3.72675641617677,4.50147157822171,9.20698169261035,8.47262879423214,1.12967381505609,8.69280857801119,3.82832050571154,6.44536945222124,8.72528348961515,4.08161202947532,8.44825314129776,7.42526634373986,3.1101474489049,6.04761484825916,9.73199773398811,2.28963345575699,6.3696096732289,2.75628693021091,5.06969472348678,3.3479000681822,9.2294418392561,1e+20,4.16909490005141,9.04792683284393,8.68597905537901,2.40832328163344,3.92954285238003,3.68001456568725,7.37566712207728,8.4445682743131,3.85909750279713,4.85672267013877,10.8883113614215,4.85120553694274,4.35288743180259,1.1167627825405,4.00180799925005,6.97711147441443,3.22667033987958,8.04759523162232,4.05473996368558,3.18858564978808,4.37962185724873,4.64818536448796,3.20483484396422,4.41465081015069,7.23512896791728,4.47266671512349,9.74966318205215,3.48310610450481,5.96576243684093,8.2539628652677,7.50040489102882,9.80147275617775,3.90593850996053,5.25076023237433,5.46380580667676,9.15571255573116,5.27820064556441,4.33842282290806,8.76830656401463,6.15282229542135,8.74791793677191,8.89671910279232,5.3995220708214,4.64523244903764,5.18800247352721
6.68016669393263,9.95067958941115,5.70035042877298,8.24408039832987,3.35113283384972,3.72746665455407,7.97375295093784,5.29031823119772,4.07725706584172,5.56201646326696,6.5569121691105,5.21441800242551,9.81762953546,5.01822624748765,10.019371546731,5.75634508252397,4.00829769951281,4.70941896169619,6.44868066271609,7.24512028855817,8.40040129858379,4.7717428959147,3.88091104375287,10.4614821143364,4.02136428027525,8.70031826247914,5.07956062444915,9.6959279993246,5.41221664054997,3.18746861967586,4.31709707954706,4.8711073593335,5.57380757568315,2.40621844024026,4.83564862373286,9.60501403380304,8.58517591633148,4.47127453087301,7.43207203824549,2.73161210546405,5.77873056694446,7.77972844360471,3.73183038184179,7.98331307755339,7.3724275753156,3.48334800176398,7.37916358611198,9.17570097599249,4.66560862344227,7.22840781703724,4.87081376563299,3.03490309618328,5.39010208739984,7.97529117156552,4.16909490005141,1e+20,9.52533153167711,8.13561474016693,3.60320573175067,2.5185626811979,4.74110603428613,7.9755477123989,8.3456381610955,3.72547398992906,2.77792210981494,10.6047405979464,3.18028152202572,5.59209046133942,4.10789918700279,4.25327645642253,6.05286217923546,4.58126993427512,7.6256388381545,3.78543228473998,4.11780076079367,4.12806605520865,5.80500740012177,3.35630464270727,3.89336200148117,6.33827343940762,5.56111676559185,9.72764992531619,4.54631839194248,5.82724927978709,7.81644576371955,7.05565154290708,10.2138003091564,4.76818045416853,5.21785009638204,6.52230595185779,8.87275735470804,3.35534606019533,4.60917539515014,7.28319970180029,6.01038939484278,7.75450144227308,9.53394436219536,4.77621411520372,2.74124529405585,5.4318965843941
11.5463306131503,4.66113916063938,11.3060952302514,12.622711324399,9.06900965939317,8.06797840604788,11.2503528706961,9.56591892123835,8.3522842715486,8.36490322407935,11.8813016394057,11.1704277806314,6.86644990370849,8.90568211206727,13.8520983417463,8.80282134188268,8.48300693108602,9.1820750378131,7.20685546748574,11.1838564754625,8.25598605826037,8.44733489489067,8.29648154264492,6.25716101721959,8.74552353881447,5.51175964281922,8.92561907983562,11.2917133132851,8.5380892442451,9.00628760577488,8.20310248587636,7.79733622723436,8.35239782613483,8.9721347197071,8.52580488061401,2.42539856912952,2.94476526227037,9.41179652167602,11.660149417021,8.83604037615795,10.522495849307,12.753390122621,8.02875616114945,12.3590640779179,5.05312676890832,9.50633126460751,7.52645576092491,11.2899538590283,8.97431749547449,5.84742152953333,9.37532039768686,10.7287762358593,8.78896004330757,10.7527577404236,9.04792683284393,9.52533153167711,1e+20,12.4185277158624,9.14682943246154,8.95283710380113,8.86797535856075,5.250238157966,12.1534722402638,8.44338640903183,8.77011025011694,6.24649647858969,8.37733534166092,7.93489986562661,9.18239938162267,9.12170265656414,10.5171112605136,8.69796444251104,11.839015722845,8.49361339116785,8.85204018380899,8.09316587215698,8.22002880588429,8.70306900367451,10.3923980929763,10.554405947963,7.92757265998209,4.29437003022844,8.19091795536659,7.328637345744,12.320004055566,10.3432170527238,4.74243006135451,7.71382351451618,8.25131330745023,6.77891182731138,12.6458064931735,8.49804945207987,8.51876133923626,11.248424194817,9.31316719561424,12.5099166893803,3.64972594653353,8.72400973106108,8.59432490902679,6.5960563901959
3.67577924015438,13.2130017938397,4.76796569845884,5.09017080894458,9.28386256673291,9.34884791859653,4.7031154325591,7.01763784231379,9.68434900880046,9.3671128098251,6.09260132145896,6.49669383590046,11.4341849147826,10.1124463585734,5.11848011062902,9.71783786870659,9.62560883722706,9.47385556658099,8.66937552387145,4.44940685216243,11.1107906642223,8.82582045220974,8.66507789953909,12.8814437817852,8.80036205759621,11.4488863939283,8.94752023865973,5.75745387124297,9.80860701560071,9.14061650166543,9.94323637455676,9.59518754573901,9.49354538078662,8.72968270603119,9.392929932968,12.3480566011902,11.4632695669908,8.55070955721492,4.86267062915864,9.36829797909149,5.47811181790104,4.73863440988328,8.99312617724401,2.09996758769945,10.4536296555265,9.26459896698506,10.6069804921841,5.91418834675574,9.26942768781367,9.90039146431846,8.59760687375552,7.19387280627855,9.07156318019451,8.74642430866225,8.68597905537901,8.13561474016693,12.4185277158624,1e+20,8.30800016194234,8.78851605585327,9.14768508713858,10.621904398172,4.89941675111281,9.56332839903631,9.12095689874232,12.3172896167999,9.15700950843356,9.73348858408537,8.54698412126215,8.4498659895122,5.5117294163667,9.77541203609803,5.19924628850053,9.46518178245353,9.6100559085907,9.49630669436989,10.0265725641534,9.19213948085753,8.93690242759647,5.41337994870273,9.20170371689352,12.8532667495421,8.92898821741617,8.56869614361529,2.76939144816294,5.31066486157919,11.8152734806499,9.23193237169,9.28670094984031,10.0180415672857,3.47064693682477,9.11925775152135,8.95056862093931,7.22152629723486,7.00250748444624,4.14074961765236,12.4999799892725,8.05512003917533,8.76494836732829,10.1221681309494
6.84722552789199,9.84044617710953,6.74476982917672,8.9176725016778,2.48947519975144,4.41737019472617,8.06013363959674,5.41285732931397,4.71822714555602,4.43521192702739,7.43475579309116,5.9611675274673,10.1606987072625,4.51493209405226,10.306884022528,4.56791273254972,3.57579548540878,4.24427763231648,6.40875049009571,7.28214970800766,8.86678384782306,3.86501234212391,4.30609483927242,9.84219617055791,2.42907867196968,8.68951199511633,3.81517515339072,9.92960065074606,5.31234866360529,3.76205398929635,4.0115420716578,4.55479389318165,4.41917383034651,3.09126433577746,4.20432959883095,9.28647676848526,8.50916072229564,2.76435488149124,8.28446280572728,3.28407999388563,6.02236824527313,8.55359075248087,3.56341693723946,8.0867036081745,7.36139945233625,3.82731206463951,6.4301160634898,9.41627711636343,3.49034054363381,6.43569248291047,3.28680426369191,4.61274013314239,3.98762029383514,8.82932139755175,2.40832328163344,3.60320573175067,9.14682943246154,8.30800016194234,1e+20,3.18045456793525,4.35548473901885,7.61317625387285,8.29782045420952,4.30204255462479,4.4308252545895,10.7540610678782,4.5483902062959,4.77890202508227,2.20760611096378,3.56575518662744,6.52615918343741,4.1100481414063,7.85176029316674,4.44198503134647,3.90044862086282,4.67662309420288,5.30233758590923,3.87498880344977,4.23572514478497,6.72276587672908,4.71976252874549,9.79718373495699,4.06385502420397,5.73044473607418,7.8833951432102,7.15309740229416,9.81111406523155,4.41249138477863,5.60219951484112,5.73616116585136,8.84006998630216,4.87571191023885,3.94610864659663,8.27374881061647,5.97527309472835,8.5025656444216,9.12187902652789,5.10568293766503,4.34209124400311,5.02187776367454
7.36153122984238,9.0344817550524,6.31638444606315,8.97421870102677,2.72903718087577,2.36127175693097,8.65132773035959,6.08446992899812,2.77125024290094,5.47795117884473,7.09682497897509,5.45240360786414,8.94773298269693,4.77250328485701,10.8094451588909,5.81008443487348,3.31590385855635,4.61806673280505,6.39243886819084,7.92973721207912,7.36467621833999,3.85458329658372,4.41084085312631,10.0234197577449,3.4735232555664,7.85428356549377,5.02748986059754,9.98180757419271,4.27666495634271,2.41971074117822,3.1681321437585,4.54591711472032,5.43943426615383,0.623314536347757,4.68539985302078,8.97993031116585,7.86641818507181,4.54037237621354,7.80411351716902,1.22955176058099,6.60969722160943,8.17071517143756,2.67804900544911,8.63249827416915,6.65868578979585,3.17837954238696,7.40308778482218,9.67999261166982,4.4278482487844,6.81125621493794,4.9278261649858,4.33342564605257,5.37876839696124,7.45032895306763,3.92954285238003,2.5185626811979,8.95283710380113,8.78851605585327,3.18045456793525,1e+20,4.84812223117312,7.90452424021448,9.11120261871789,2.54766403599516,2.64400632580172,9.74908213786979,2.81576189640829,5.05011153872722,3.89724275572477,4.35928235311237,6.45943605523992,4.25808146280122,8.07060891682276,2.60810789146878,3.03758190204998,3.07126509928615,5.66485723367322,2.34036402526664,4.26062067351821,6.86076177497054,5.05372248083801,8.94318837879002,4.51033017169902,5.86878737991468,8.51182346620718,7.67735550756197,9.87047587049788,4.46333058604705,5.01009715644517,6.17354835465621,9.51959271637858,3.02102269570437,4.40521715744938,7.101600649687,6.41990986354227,8.26730674091879,8.99130943162059,4.86615564505402,2.63389651194751,4.45590693712982
7.92168891743757,9.91266703348587,7.52756209234516,9.12842659702736,4.16636613828586,6.11411088616555,7.7807889572973,5.7362295775741,5.5440357778938,4.64634484120837,7.66222211323759,6.94499190151662,11.262049460435,3.96091480596906,10.3536087557608,4.0523170370226,3.99945163618277,3.81055402488533,7.53069533464703,7.94582598662598,10.0355813600583,6.07097340538957,3.92078802392874,9.76866210010393,4.04260248475117,9.81298017094402,4.77846008984006,10.9044805325258,6.30430040021181,3.91142568748834,4.91251273287451,2.71123649522222,4.48001356009423,4.62699423763861,2.89173054666639,9.14014757169041,8.70382355238642,3.40700989410592,9.30821363106949,4.76862631123754,6.33899904547619,9.01470829414031,5.59688332472717,8.75670796742737,7.99816798011044,3.2801372460651,6.32179221378189,9.51101923533332,3.55929774985374,7.45300590031787,4.07300110108347,5.04278031236878,4.14451983086296,10.4278403946839,3.68001456568725,4.74110603428613,8.86797535856075,9.14768508713858,4.35548473901885,4.84812223117312,1e+20,6.53336122037003,7.66617631501742,4.88591609701408,6.1397360972017,11.6744607845953,6.11394672149583,6.06843207501216,3.68685947823485,2.87975790075198,7.49251641969391,4.30990648950048,8.50973496771731,5.36102273937133,4.55676686016339,5.65591906174475,3.09766384847064,4.13697941874543,3.46978324668771,7.74244441925401,6.03081548968977,10.1640908496206,1.34457050989147,5.5955393114862,8.53959753128701,7.09039538251035,9.45412390466185,2.78766647985913,6.0092564406613,6.47646459724608,9.64492584254744,6.55133976590194,3.31522375099016,9.90354458380757,5.63536594804325,9.00346726107218,8.53531769713734,6.09526367913125,5.9610027627069,5.22624221244225
10.0356657233915,7.45513358699052,9.91900244655907,10.9842203953824,7.55230426390561,7.43683844311334,9.21625101507296,8.11203894631054,7.86073909069865,6.42238625605527,10.5800558515435,9.98509114415051,9.55062027553682,7.19801408052026,11.3295064491632,6.88660758870964,7.41455075346813,7.42661197709005,7.28743508436846,9.51453085856263,9.6393591246189,8.02104182250594,7.12646896971544,5.60066051019028,7.46933851134554,7.54486783261744,7.37524238613684,10.7863058812305,8.76815650794022,7.7102220047388,7.75295788591337,6.16742827209422,6.52004176440055,7.72825467966196,6.97149094878033,5.04915046657059,5.75164973093998,7.34725437224359,10.5180673595431,7.70971303405816,8.86280154137711,11.3230949805975,7.3995149286167,10.4786324721773,6.20280704036396,7.68913843662249,5.36355794351657,9.98763638361216,7.52282009889452,5.42650233980664,7.43027328451261,8.87626025916764,6.8957731856333,11.532815082307,7.37566712207728,7.9755477123989,5.250238157966,10.621904398172,7.61317625387285,7.90452424021448,6.53336122037003,1e+20,9.79672040745441,7.54880319672087,8.1273990381336,8.75104441081519,7.79707234970258,7.05732708964966,7.5529189827657,6.9696003920935,9.31351509878995,7.14018927198287,9.9403666984412,7.72589780741111,8.05058041985212,7.40902174156359,6.74832338323613,7.5571129001284,7.98113656929216,9.3085692769394,7.16496925429098,7.3630967821745,6.13001478697782,6.70637156061635,10.3870101460784,8.8390270153283,5.50326088542505,6.13311461285787,6.73028972077864,6.25836955269617,10.4404986628389,8.19602206187203,7.03980796710587,11.4450493386959,7.63927656859929,10.9976201092297,4.18212779661751,7.47034630523431,7.89178119550751,6.60108746221007
5.34117688197479,13.3161488748247,6.71421260219054,6.10890671120374,8.99006258936617,10.194823566175,3.99685974778521,6.18839623873578,10.2468207018218,8.71081475796732,6.56682946923188,7.39618193294983,13.0020708127992,9.28863059789522,5.49541743502531,8.46522695724394,9.4044534265277,8.72369150167918,9.05338076417739,5.12088935146686,12.5339368359302,9.80183250100636,7.74717875042632,12.3996683890088,8.83692288786502,12.6499874866149,8.77378034555408,7.82177931179888,10.1981887026763,9.14985356277054,10.1007871680751,8.56509848477735,8.70408252894558,8.96639209807039,7.93274711969671,12.2141139646021,11.8398305826306,7.94706825115047,7.36317093778786,9.50117157150768,4.95883546736931,6.07606280942576,9.71639337299076,4.21742938328299,11.1270276726784,8.75468207332237,9.8390309627119,6.387925417554,8.48420563176487,10.2943019853493,8.01893934472453,7.14455598392725,8.13955281865601,11.0186687878328,8.4445682743131,8.3456381610955,12.1534722402638,4.89941675111281,8.29782045420952,9.11120261871789,7.66617631501742,9.79672040745441,1e+20,9.87442304125735,9.93229515603318,13.5368158754739,9.95561855041118,9.98542198322964,8.32053972671687,7.04908216863201,6.60676422320717,9.38854555654191,6.03252962729447,10.0579136894254,9.67502379180146,10.130371494218,8.46899028431997,9.22462140258371,7.85192568531915,6.44954665794155,9.44802190677458,13.3908333123185,7.71056894199854,8.19803182353428,3.83687773619499,4.94480372128151,11.3147922420987,8.35307519601341,9.47518878967604,9.87706935202871,5.57203947241895,10.1622566784115,7.8251243011184,9.65492977346013,6.47133772248037,5.64635488970797,11.964866228778,8.35443637046648,9.54987230741883,9.77963794594145
8.23875392623781,8.34093628372889,7.27682087572662,9.79180908624538,3.77244912273111,2.56074757365213,9.3751693339469,7.05087937189798,1.30612961268915,5.30133102350294,7.99172589045929,6.7101350081605,8.64541266585923,4.44704800464135,11.4554949770475,5.75140317482531,2.74289310770607,4.35772935012513,6.65539718086465,8.73533390932213,6.99675795383698,3.56487208174515,5.17846849050081,9.42324830377218,3.25776174170043,7.36726541668018,5.10176952185426,10.4170947758617,4.22944594559786,1.60674668904922,2.33275665701243,4.19058825798024,5.2661469286506,2.55593015983928,5.5325051464544,8.43931807854218,7.32839962542026,4.63460529594583,8.59209262371272,2.75725528050544,7.58912569762975,8.98597555060353,3.3186119403111,9.45058088468703,6.32394360067957,2.80239650520254,7.16959266514306,10.2883222120204,4.52128859381693,6.36862559184844,5.13406643283099,5.39881603223753,5.35190152452546,7.86816022226381,3.85909750279713,3.72547398992906,8.44338640903183,9.56332839903631,4.30204255462479,2.54766403599516,4.88591609701408,7.54880319672087,9.87442304125735,1e+20,3.3258012336799,9.29767053943376,3.29650882331206,4.78115783944391,3.97807854548532,5.32387363566018,7.21512935517786,3.8928042275812,8.77160970203319,1.1199334652549,2.32379459730928,2.06479767703566,5.66044900293653,1.31824635474328,5.13730713703548,7.75658282485193,4.95299667721228,8.39253369024512,4.41868259006457,6.00354890466383,9.35776471031858,8.44601201169501,9.49838306818307,4.29659340793621,4.96687616175957,6.01739784591886,10.1915082261945,3.48613668658445,5.36664487096183,7.84715763636431,7.0704795116339,9.16387604815531,8.43052689517054,5.36035388444479,3.41928684201379,4.66901903482229
7.57042455320788,8.93582108825214,6.36504716186805,9.47560682183232,4.3199180536375,2.31120833865283,9.13508191892226,6.36595441650399,3.14652532276663,5.98829817774159,7.54149277730433,5.92233931902601,8.23297075901468,5.84354108647431,11.4733726004157,6.72308019258109,4.37820479683442,5.68247696126499,5.94014291877658,8.20574786643582,6.46219187564141,3.84227130119752,4.89303551875514,10.1207488251728,4.31775079700935,7.11267836057933,5.48083644291985,9.97070848852356,4.3324819829248,3.63176147316445,3.92175596504729,5.44034513340743,6.03343240210776,2.8350108977405,6.12462202480303,8.76186153239819,7.48479696656276,5.59817088987995,7.71670625372657,3.08479642124729,6.96408222195447,8.49501823061404,2.75421203667225,9.06045100135502,5.77980424446277,4.5560882352501,7.58531369712843,10.0889074600915,5.44141380778291,6.46636224076496,5.77980973933896,4.89355969315164,6.16889447613992,6.70254295752217,4.85672267013877,2.77792210981494,8.77011025011694,9.12095689874232,4.4308252545895,2.64400632580172,6.1397360972017,8.1273990381336,9.93229515603318,3.3258012336799,1e+20,9.12153940602119,1.09011758491075,4.79143271644151,4.86561217048887,5.7570303373743,6.32793898318199,5.00648067712403,8.25212955031641,2.99184188806935,3.92977738513246,3.42418047945159,6.69842502169076,3.50375283918271,5.97407309090345,6.76673321131454,4.92441038854246,8.55806705189771,5.62733033670016,5.94649222287155,8.96184532434408,8.00528841557513,9.94261730074012,5.29393147133921,4.78758005645029,6.01600267767144,9.8933535062826,1.09381157507393,5.59023594680169,6.45046109019861,6.65851774281426,8.64440668785377,8.93372770793557,4.43977771515497,0.986252506843423,4.80852728840728
11.6775319954799,5.18201000547379,11.2491541205582,12.6468331515851,10.8239530318956,8.38373664503971,12.1529504082993,11.1259855673256,8.72573913407567,10.7037683381991,12.2531244894603,11.3546927141249,3.00870306044345,11.3077410570859,14.0698716192077,11.6936483384019,10.2423738710576,11.4076030567738,7.427056068981,11.7250011332386,5.83214574192034,8.66073831414768,10.4243436840288,8.36280007367867,10.2551596215955,4.49803856803589,10.8643338924225,9.91341232189506,8.80601946656104,10.2883717824141,9.4010027282865,10.3836085872424,10.7793717028294,9.9235194708654,11.4302771395484,5.46494326854643,4.72231894049413,11.5577386286357,10.6137984251285,9.92223253356663,11.7422170939092,12.4458092615116,8.85685392053587,12.4474279185356,5.74990808436253,11.3143732294076,10.6244509476269,11.3414965323497,11.1851842430238,7.56820564424993,11.4963899207493,12.0154474267449,11.213816127353,8.31667245926258,10.8883113614215,10.6047405979464,6.24649647858969,12.3172896167999,10.7540610678782,9.74908213786979,11.6744607845953,8.75104441081519,13.5368158754739,9.29767053943376,9.12153940602119,1e+20,8.76350290331797,9.27794390144588,10.9793142100642,11.5518387424909,10.3883924627634,10.7142089110371,12.0639342173336,8.9898896684232,9.97364743695712,8.47331513984612,11.3288310132395,9.84752932194318,12.625913193742,10.5616493203847,9.06542707854693,4.62361787998675,10.8677302413416,9.52077671970259,12.583791249616,11.4875369621829,6.69768401035246,10.2041801346396,9.64181180621767,8.81834054690846,12.4368947718103,8.52177080552651,10.9771548706204,9.2596024151055,10.7641638467771,12.0833158271842,7.02621006555348,9.47699258506174,8.94890986290508,8.50852335287215
7.67178887551964,8.52875348185608,6.45330742594208,9.45307304025806,4.33280012967673,2.32473939268597,9.16023986033295,6.4728570908029,3.17012591208637,5.76764751412425,7.62829572204014,5.97464706496411,7.86782492666836,5.65917742618039,11.4523459705959,6.59150718879803,4.30954262238778,5.59224005511235,5.79318204676188,8.25607966907845,6.01559068897127,3.74408441334734,5.01602253054304,9.75768019725122,4.26605823339596,6.61160293794908,5.31729834870809,9.8232947711882,4.1423265975725,3.64738845705341,3.80429232372195,5.31896584947141,5.80169705184732,2.89803586293587,6.14681522590565,8.39092145706102,7.03520967125967,5.56955621357172,7.72131451790407,3.15960492703837,7.03528567821019,8.53350466733888,2.64647828585412,9.12057559453797,5.37255364167166,4.57194625858307,7.15739599981365,9.94972435321644,5.34834786140154,6.06776150396797,5.70061414070224,5.11720915176063,5.99490266526256,6.72710903837579,4.85120553694274,3.18028152202572,8.37733534166092,9.15700950843356,4.5483902062959,2.81576189640829,6.11394672149583,7.79707234970258,9.95561855041118,3.29650882331206,1.09011758491075,8.76350290331797,1e+20,4.39799807907892,4.91458796499352,5.79985998734907,6.50370639615208,4.88772761633636,8.32100732236055,3.02906969891969,3.82331054890376,3.31878125131091,6.5531946202467,3.39420123189038,6.04197631427042,6.81914567051112,4.59734084876885,8.07929686035525,5.59630065378857,5.96583469334677,9.0309042412047,8.03978973714863,9.63497220410845,5.1819967490593,4.19866934435409,5.4811969381627,9.88003803856432,1.3376281506095,5.68042578327144,6.51237584138246,6.75034083654645,8.63606103795798,8.60982367419378,4.47347989636447,0.832269088389076,4.74620985334775
8.34217538019267,8.42057254532833,7.87281585645529,10.1914208655444,5.1343574273138,4.64015816719931,9.44469497933802,7.17331842392205,4.84010875235114,4.10154620436285,8.63778350040313,7.35922466695328,8.73453549978676,4.95312254529447,11.5954821134508,5.27831749491455,4.63690881055794,5.10158448562065,6.45290592341848,8.6485643012497,6.72596146798755,4.28505408882637,6.15105430131782,8.77075550232545,4.07489564595705,6.83583905280976,3.56070279114805,10.2901233784349,5.362608001622,4.87328240615878,4.56757923565499,5.00762067835294,4.09031979239841,4.99586213561996,6.46403799794332,8.07379465293438,7.04972354665259,4.88155789911621,8.898087545135,5.06494363577037,7.69227766265855,9.44951199301648,4.08904617079247,9.53324467860973,5.76558220505692,5.34304117066306,5.63431791465819,10.2636519328366,5.04336319935463,5.17613019519877,4.61060888232712,6.74446503452868,4.89187781858739,8.57672946891191,4.35288743180259,5.59209046133942,7.93489986562661,9.73348858408537,4.77890202508227,5.05011153872722,6.06843207501216,7.05732708964966,9.98542198322964,4.78115783944391,4.79143271644151,9.27794390144588,4.39799807907892,1e+20,4.51128923540295,6.12299890734108,7.61464560966572,4.2095029226622,8.81459803358317,4.72019587345745,4.56781109803191,4.77307691680496,5.909911647922,4.68771504015654,6.71382555650237,7.77889601554757,3.31371953414798,8.19408269894387,5.61659705416839,6.48483839213912,9.425505053739,8.50123254914446,9.18546823933476,4.88912633798831,3.73616877169158,3.86525057065131,10.0776038854606,4.86846300116779,6.13721139088042,8.48159164784609,7.09899162524172,9.51682939328681,8.0303208671705,5.26213686266506,4.56027817187912,5.4010563531589
7.16059993528567,9.80501567294996,7.01034021735426,9.07205839923569,3.23312045683219,4.95123943190359,8.26177082364711,5.70425898602535,4.4141750395244,4.09071893310752,7.5692228323146,6.2903286340378,10.3746450527274,3.9114177310166,10.4419091800548,3.95067174830511,2.81175566233816,3.63681540357843,6.80881963663904,7.52563600526074,8.95863909593348,3.61785043259464,4.731840318335,9.8004970667619,1.32913770329368,8.80413995383427,3.26577117887083,10.152910539879,4.92427297030183,3.15089618479744,3.49867227690065,4.06960740657136,4.03092281234003,3.80076279587918,4.53688751876436,9.36254130188095,8.59253403726073,1.59493352296,8.55663087887173,3.90569899882357,6.28916519102465,8.7092616606152,4.03952174320766,8.28433392168052,7.52450327176797,3.06409849949638,6.19347127568907,9.56552995269506,2.48602537076206,6.50975778363641,2.43382258863301,4.9180609038467,3.44085345696098,9.14544616503602,1.1167627825405,4.10789918700279,9.18239938162267,8.54698412126215,2.20760611096378,3.89724275572477,3.68685947823485,7.5529189827657,8.32053972671687,3.97807854548532,4.86561217048887,10.9793142100642,4.91458796499352,4.51128923540295,1e+20,3.96269954667315,6.93860247790498,3.47685592515189,8.05344984237183,4.12833126214502,3.33139005770634,4.39140467018981,4.72722191211916,3.33309425825474,4.41484384755407,7.08617277485762,4.48178624167586,9.8488583455511,3.45171315421316,5.9955283902298,8.07897650504583,7.41657077268299,9.92680058559573,3.94178478676822,5.32104788300974,5.52739950191947,9.03128141577957,5.30073162379387,4.3458836791914,8.67696132749776,6.04925134343242,8.67444357164733,9.11894683000833,5.43036323026289,4.72610162379505,5.36806451980604
7.09359482967293,10.2146371640013,6.84782512489573,8.51622872188535,3.67810232150292,5.77137313820605,7.23328213268986,4.61389023772769,5.871658684037,4.68401483772492,7.13966307082873,6.021872852247,11.0671600847523,4.74345519098777,9.85939959273771,4.39924753589307,4.57071507530989,4.54942544181748,6.54979061713861,6.9838467473861,9.88578869625131,5.90185453698481,3.5119873883851,9.8604393721921,4.30252596359939,9.68451008723398,4.95200823389323,10.2380750425256,6.17913693022898,4.48444804095118,5.30581984979284,3.89285085004775,4.65789529350774,4.14583030514489,2.49825659387002,9.3703416367916,8.85707202591437,3.79240898261168,8.45264254434799,4.29112309967463,5.18896791394112,8.47871141340889,5.20247417104482,8.0517655185603,7.90251188712246,4.11268504002722,6.37877281549897,8.88661482761047,3.8729095934689,7.30222018454531,4.30030254310273,4.63476428668391,4.26302296586553,9.8791329686235,4.00180799925005,4.25327645642253,9.12170265656414,8.4498659895122,3.56575518662744,4.35928235311237,2.87975790075198,6.9696003920935,7.04908216863201,5.32387363566018,5.7570303373743,11.5518387424909,5.79985998734907,6.12299890734108,3.96269954667315,1e+20,6.48747237178544,4.80421836151905,7.81072764738279,5.63647768183802,5.00580964761873,5.7992585235759,4.02809500002711,4.6587947697774,3.55705171437693,6.63049509300058,5.82764424807621,10.2911747607284,2.89764551770608,5.50082530809416,7.82333818502944,6.50382018437245,9.58029088835181,3.70053984007048,6.10868469664589,6.39835271449682,8.97093125388412,6.13303773671225,2.73539308913952,9.19916945600595,5.39579808969117,8.35332359925849,8.94733806688555,5.18564831931164,5.54191645764877,5.18913324070341
4.07121340803612,11.5249860262481,4.29900260181749,6.90462658314999,7.32407818999053,6.72305765656739,5.18874060970521,4.85375375504287,7.11032921493833,7.57011199631796,5.5371417435313,5.08192156333988,9.66620582381057,8.59764524518429,8.26754783682586,8.37872972560313,7.66678223775058,8.1672413067582,5.73251005566898,4.59743291003563,8.86705426515595,6.40514997094141,6.06651442895093,11.7518593390411,6.81135649396628,9.60074357400647,7.54582462800992,7.26174656670094,6.99839101971933,7.12076458674107,7.63693240849243,7.44623445548623,7.7314350881264,6.48615826023625,7.41009547656646,10.49151125731,9.57817094528833,7.27263742702859,4.93886933235632,7.01739776222965,4.04261954178093,5.62846485588553,6.66411212910927,5.2116317086487,7.62113147427633,7.61464330912035,9.39323681991778,7.32948815445809,7.47882332692031,8.20261276940626,7.49743846117266,5.78830702786719,7.55298421722125,6.59749695666028,6.97711147441443,6.05286217923546,10.5171112605136,5.5117294163667,6.52615918343741,6.45943605523992,7.49251641969391,9.31351509878995,6.60676422320717,7.21512935517786,6.32793898318199,10.3883924627634,6.50370639615208,7.61464560966572,6.93860247790498,6.48747237178544,1e+20,7.96233955291247,5.03572301532881,6.94497211090088,7.31878029264327,7.13338180874441,8.1708070945399,7.08056290944289,8.01537734046232,2.95811532686308,6.94861346700112,11.1031959689137,6.94998610865912,6.00521205031587,5.31328271342141,4.32922483109127,10.2925651376217,7.0266090191131,7.79755717763741,8.3338090256686,6.4973486193681,6.34653833249527,6.47611320775006,5.36300645025036,4.41284945308527,5.61276299490538,10.4655219951003,4.37456123534452,6.13094660010378,6.98734360323179
