1e+20,13.2453842867741,4.33887558341363,5.0647702684238,11.5062928955322,8.77699190767434,3.84566591329278,5.71652219761995,10.1093209236992,7.53061546096823,9.70585819081077,3.58566908767564,11.2162225898736,10.771526483728,4.85693999772945,7.52830196303249,11.6698092353124,12.0519282501282,6.52258595332013,4.22133479198414,10.9174214821607,9.56653009212304,10.0139100689731,11.2537753554009,8.17181676007409,11.4779165846662,11.1184528604173,4.70107470292455,9.49752695707015,9.88299957601863,11.8444284635196,12.1103991072179,10.0088791615593,7.03304596665519,10.8623073707602,11.7458448131387,9.2152347415101,9.15149904360818,3.73392607816947,9.5926660171116,4.32976099935217,7.19703664461953,11.7297934035585,4.79766605439995,10.9213556281515,8.6203179224789,8.35665799589963,5.87965557663632,9.64724313737164,9.36587116421412,6.71496448091223,6.86442313532234,11.857248371386,6.46554237083649,11.0147759502732,9.18652531972647,13.0462028682609,4.89077969162617,9.09226224633441,12.1320548909011,12.0223515253607,11.6330770658222,8.27105661174999,5.49199653871757,7.31876906535506,9.12608685012024,8.59145146898497,6.0629754125051,8.6378807401742,8.18463508374914,4.96460176434229,7.83249577117389,6.59496897700427,8.69234080711385,6.51195443053411,6.16677971534074,7.56647005971937,9.03516213627248,10.7287306104719,3.39609740117518,8.93066276253402,11.9318823843763,7.86989916665829,7.04553437982153,3.10694437076493,5.65558731818069,15.1875113593421,10.0944113873944,8.98157922049363,11.0649469871747,4.43516047393915,9.36008261683551,8.59031052689067,7.38603262154704,7.5081751213832,5.98504676897003,10.2092563613179,11.1720971892162,12.3686442026963,9.48383105397623
13.2453842867741,1e+20,15.2239817031968,10.9619669694101,10.5057932900158,12.7744568984035,14.1292767409988,13.1906754329237,16.8656817657061,15.301970430464,7.04096116914636,12.1890399738522,12.7174780479384,13.2290107450835,14.6323439901428,15.0396904294478,12.6800981301016,13.2420865944104,13.4809821504128,13.5485023585389,18.8775255367136,13.5990333713567,13.4776735498891,9.14661518746242,13.8383917262801,12.0407581932799,19.2450596947911,14.1852984143872,13.1347989398781,13.6666152576015,15.626602489528,12.5437156033954,12.7822972891353,13.7378164083262,17.7632188813385,10.9656462170544,15.5467451045859,13.0566138174922,12.5463034202771,14.8188612830921,13.6135048794224,15.0325110474944,15.9600638623205,13.6178346057428,13.2553626536354,15.1081684491135,12.0783685282146,12.3481735459854,12.9437068690772,10.0438492077293,15.6835062624071,11.5756832049861,18.770534461233,13.9961620471573,6.93261326838463,13.719252573334,12.7474858470316,15.8324056253923,13.8788476203311,13.9844295782648,7.18957913187745,11.4232455413883,11.7888703382284,14.7863964667657,11.8009851785679,10.8237679688559,13.3655870422714,12.6548935202267,13.036612045508,12.580035944145,13.1238862432862,14.944563364156,13.4965380877583,12.3773198508785,8.73638997080963,15.2876775434997,13.0355452720635,14.5098192311226,14.4703353420285,14.3175705351227,12.9591125500207,12.001234040003,12.207348073784,13.0853822885156,14.5638707449635,11.3502900073151,15.0386338464841,13.9356339082701,16.0277058889289,12.64664045759,14.0606264082498,14.7542450298564,13.1199929004292,8.41712472771051,14.8294284979513,11.471654036669,15.2426168477065,7.14443536933773,18.6227632017414,12.6844467700201
4.33887558341363,15.2239817031968,1e+20,6.04118142887838,12.8291596444529,10.056080181532,5.0692455462953,6.6215960833769,10.1048059691228,7.80129203231808,11.8929488226349,5.9127282603735,12.7859008140905,12.1202288966115,4.01214172801668,6.22360930824633,13.2148136542522,13.0756116947448,7.55115920355195,4.89220145053636,9.23360825820373,10.5501464185362,11.0760176261759,12.3958902943209,9.25464562567219,12.4647276834915,8.23060552316543,5.52119417008148,10.7858978987211,10.9653140551994,13.2489436741613,13.4989515751597,10.2275943909066,5.9550631949292,9.31672714450329,13.5518672238014,8.59227139996943,10.0827054652522,5.50298594275288,10.5682794215314,5.81260357514366,4.91350824983863,13.4033446689293,4.77961895852808,12.3302910769268,9.03499074975516,9.44593958944335,5.35354539262036,10.0368274461517,10.3499240209048,5.82229148477508,6.936691322311,9.21373075347052,8.49524575847432,12.8730173259462,10.7898166752957,14.0296714309505,5.069832257695,10.0600817262513,13.2558921648952,13.9311803940402,12.6056205895078,8.66833261530332,4.21214195976326,8.43842930157145,11.7565153320851,10.5483653083371,7.47160551856439,9.30750993829865,9.00744908372615,6.63290344927484,6.4355088274203,6.8712045738689,10.1382569921983,9.59736090349159,6.91850713817655,8.87548883204039,9.42019193079418,10.0286279190353,5.3464267359885,9.47344744247869,13.5399545202913,9.63282164442886,8.59451889872844,4.6719795402152,6.90333537052575,17.6696864693208,10.6088113455357,8.37655909904356,11.5445894754531,4.6842750170996,11.0204475491532,8.68172879976334,10.4347610943408,7.68498994478157,7.81127088613071,10.6734312561741,13.0416701886725,11.4215315200199,10.8940172698356
5.0647702684238,10.9619669694101,6.04118142887838,1e+20,9.00229345684204,8.32079221331901,5.3442021278865,6.34867803607796,9.56404758198888,6.59268023286055,8.02487163814847,5.21014858109921,9.99199926872992,8.38204403524951,6.1987243947676,5.89687757492581,9.26258747384472,9.21104498189328,4.9700838688542,5.51477799200176,10.3618938528482,7.76660027079679,7.45832582922065,8.38479668273664,6.55744932900039,9.03122517307934,9.85942158366641,5.77359354277289,8.13167356310885,7.73819305396371,10.4042691671135,9.48747802081652,6.58248522646727,5.74464572440853,9.41065215264105,9.44460233786913,8.075786839314,6.87217395956857,4.96716819551638,8.89526952389334,4.79104273887529,7.26280688229348,11.2692559474445,6.74353300602127,9.35297843464504,7.42285212066249,5.27146214511474,5.54016476432733,6.88827408235142,6.82933442765297,5.67595510823532,6.27057916182282,9.85477998931752,7.15476096900625,8.77491910882257,8.13764232106731,9.81684661622509,7.30689940718389,7.01177454367683,9.97985383772698,9.32001597845507,8.67543932405435,7.83601283743542,6.00962416046088,5.27610300101225,9.12076627909849,7.8840701069473,5.40906256124458,6.63787963774937,6.43276282654296,6.58780219421632,7.06367978087185,7.3168957241696,6.96851973798998,5.57959785100735,6.71849912801715,6.02207562688751,8.11210892679558,8.1426180672917,6.15277644102151,6.14125087001514,9.57587215714915,6.53180689643026,5.14353331151534,5.55481018276167,5.10289381069446,15.0730870515002,8.10540108375769,7.27042666119876,7.85870955398019,5.94612232744479,8.85945482208425,6.62707761422956,7.2126416454736,5.90187636948473,6.21211757329325,8.10394193054761,9.96385734113277,11.2444028564557,7.77109155272057
11.5062928955322,10.5057932900158,12.8291596444529,9.00229345684204,1e+20,13.366210079067,11.9333774226164,9.64203086309769,14.4812460608386,9.1566213189483,5.47080822771349,11.5864468814312,13.3488783370064,10.4343942513041,13.7727770618392,9.88120208716785,10.9111351502703,10.8429388228836,9.20928997571751,10.5292228948886,17.0458874017905,11.3465560868136,10.0629474014374,7.06784679067962,11.1213306558248,9.71386058797343,16.1783356595722,13.0739253498754,9.57591813197137,11.0049359564263,11.2945698597934,11.0534060457744,9.03262728160999,9.26674100065757,13.5381106725506,10.0384741030249,12.8624640368047,5.84002959764141,11.1606213071472,7.35509596809702,11.3674405201018,13.1575394764074,13.8643656433185,12.3584554618112,10.19193698813,7.57871761356046,8.37997607408073,12.1411476434502,5.56391233102339,5.36741275768206,11.4427937861638,10.3155249583977,15.0284234322026,12.6437688401653,6.7860283699211,10.4641380972441,10.4512945599355,14.2193786155825,10.3427586317062,12.624129381722,7.8717899526736,8.83336652368219,9.04306244292752,10.8111293275535,6.23070437119714,12.1461382960987,12.1077611179226,9.01592963033154,6.78703152205172,7.46856274262508,9.7192295650013,14.5739349178352,12.6103772023399,11.7566700765691,9.70237473701188,9.62082129197772,9.6773573217024,8.71422976239046,6.96088408371468,12.6472013121249,8.18025598674871,9.38275231356309,8.5185172056646,9.50947459710716,12.1405029425332,8.15108404922971,14.7909897501915,5.35776724378052,8.64938338612897,8.65632007285306,13.2709436468826,13.6977730016502,7.29453301665501,10.0551029678036,8.93723538165567,8.26258806162136,11.262436131911,9.66346488270661,17.336105629244,4.99572411153847
8.77699190767434,12.7744568984035,10.056080181532,8.32079221331901,13.366210079067,1e+20,6.52376876105454,13.1559646269455,6.02457129992696,9.71466742733199,12.393183083166,5.30999503496198,4.46519189990726,7.31490820847767,7.51925556602833,11.7351353297229,7.36761153895467,8.18518906038459,7.12608762870196,11.923272512679,9.66911271443825,5.64988248831506,8.3712769925892,9.32889305481969,6.63709408566307,7.52731304271163,12.0928154931888,6.13674734002605,7.35240583538558,6.73698635341735,8.76465021385745,7.1541121735885,8.01412055101385,11.6333455552201,11.0626016004832,7.19736505696786,7.47920174897193,11.5180841659136,10.0146225891193,13.4751502279043,6.45381969462469,11.2350184855706,7.02498512033168,12.2154047743762,7.26925996515701,11.3926952084144,7.27843826247756,9.95600252362176,11.8756628103262,9.44875379063397,9.2776550554362,12.6382452626444,13.2706626453083,5.23844632560395,13.7898016618808,7.02653232742198,9.15548399083769,6.9872918807547,7.04070577668905,6.1812630473759,13.2085056910414,7.87622951129174,13.9277551218873,10.4637133004682,11.1374178019625,9.69663260184326,6.5920393107727,9.08213279878383,12.9326052317989,13.5160036955863,11.3763024575604,10.9813907183728,6.93711427552621,6.70885555885426,7.53051520290852,10.0751047914983,7.58549429188322,15.3344828883799,14.4449752050438,6.57239400342268,9.43553219235107,8.10327321989964,8.12508240685554,6.8820684911538,7.15218387541244,11.4267126775501,11.6720078822429,12.8646073126635,12.5472051305074,8.63092964058071,6.90687863626582,4.27718432610707,13.6787714492899,7.93603247344469,10.1929145305209,12.3670494918274,7.39451544077831,15.2032801234482,8.01138906755804,11.9304139980568
3.84566591329278,14.1292767409988,5.0692455462953,5.3442021278865,11.9333774226164,6.52376876105454,1e+20,8.37027814436008,6.76044260073872,6.41790413465017,11.0614751136896,2.95385845975404,9.35607480364073,9.21784045774329,3.51566297030205,7.15104484868248,10.1716892172876,10.4627681563561,4.7393690494722,6.70686384113901,8.54870893360161,7.76431299784688,8.90529692319944,10.2650834746166,6.84539327050898,9.76975664215292,9.28099600608934,2.88488928929049,8.29293848426268,8.38210328270911,10.0503533166302,10.3652107716596,8.28589717574951,7.1805279545232,8.46147087533709,10.0509069455978,6.78376430276268,8.90016039442411,5.21918178229028,10.5530494249403,3.42868029649986,6.91325692852698,10.0047791814679,7.31053199675599,9.31852139870235,8.0313527962149,6.95999764020777,6.26609074174995,9.50469818149286,8.83225878777064,5.07890723765422,8.67409081503252,10.0673519974626,5.32591042057984,12.2804978180992,8.05794829502877,11.0893332836391,2.97512019173856,7.54126059454832,10.0367673506781,12.5932584053628,9.84292505567135,9.92659331829087,5.52153343760784,8.41916984667604,9.75606565781517,8.03312730631019,6.93451351436217,9.70668959387811,9.92969898561337,7.39303254262939,8.16978632165432,5.35606596532188,8.2093919909229,7.39852755341932,5.54693224397922,6.6773291620823,10.9999279019235,11.0657294424484,3.00977194031521,8.39491170676549,10.639151443169,7.71593194271833,5.47460572562768,1.99030819124874,7.55817181128426,14.3214156419952,10.1082305828834,8.67114855630035,9.41531327759522,3.31559528213656,6.97270540829039,10.0455199801824,8.16762679554791,6.37928196980817,8.52020127927238,7.2620052127002,13.4190154294894,9.33544354037728,9.78436873771498
5.71652219761995,13.1906754329237,6.6215960833769,6.34867803607796,9.64203086309769,13.1559646269455,8.37027814436008,1e+20,13.89021169061,8.74886303198531,8.21240261620918,8.46551430264577,14.9985962419648,13.032578130338,8.97909657218159,6.65059730405315,14.1446250711444,14.0543833402131,8.75085562643072,2.5070587495338,14.3847928186052,12.6641917388708,11.7825680101345,12.2738945503933,10.9976895819315,13.6732465216045,13.0284592825646,9.54593865285053,11.8918646911174,12.4893745677307,14.0004558395385,14.6306887019653,11.4642522572251,5.6626754616621,12.097567771219,14.2887123233952,12.0441947572149,7.95177544696123,5.59092802223831,7.82740756388051,8.14852332142061,7.95588588369144,15.3109406986307,4.64467649715493,13.5714279866645,8.21196492976248,10.0446277667671,7.25945652325081,8.19100558253766,9.82688150006899,8.65808795153849,4.57139214363562,12.5822452691432,10.9546906940835,8.84992666678099,11.7823979268667,15.0051052402228,9.83730368151356,11.5152059854502,15.2335074847429,10.7041484830851,13.5327666089758,5.10733685766421,5.75922927056789,5.84296998041663,11.4118874824227,11.9356904998351,7.15922178584169,5.85044238546305,4.4922903284951,4.24684401046323,9.41744454807761,9.66761074183222,11.53739256412,8.94415717445336,7.20292483786714,9.63991387193957,4.43190303563141,7.65239717543243,8.47035701610018,9.68512287416495,13.9230624432568,9.56778947724671,9.45750370110501,7.83770459280792,3.72478088115253,17.954660807543,8.18532139222092,8.13635055536396,12.4667245260198,8.96478368796717,13.7262230128034,4.78398463316873,9.79308311756924,7.74048118354909,2.90358367605743,12.7654579635796,8.77885810152585,16.2868750387641,8.16547378290719
10.1093209236992,16.8656817657061,10.1048059691228,9.56404758198888,14.4812460608386,6.02457129992696,6.76044260073872,13.89021169061,1e+20,8.79610067451744,14.9975002365956,7.76822045107866,8.34399500568306,8.51952168666552,7.89839738417706,10.4213827279346,9.3736292746637,9.3898357428417,6.80856000737519,12.3547201276515,7.898795713269,7.21987319805366,9.14824177179984,11.5186417046881,7.52468889774818,9.38008929681336,9.79489726680769,6.99821380661403,8.84609568091854,7.99703242255426,7.85954964121719,9.12470985622432,8.27921048309291,10.9416581345935,7.27142419703583,9.79462444570077,6.5115701962611,10.9646343784837,11.0614425150456,13.541267106528,7.352078219636,10.9452677578773,8.52688676680743,13.2146251298612,8.98757851605475,10.2145282844066,7.97126226404459,10.9924815820555,11.4790255527774,11.026191047298,7.61330767330628,13.721955996869,10.7720151326815,7.51859091989061,15.9724895449582,8.444340934489,10.1251536334825,6.97671010538828,7.56478434546218,7.91297665176705,15.0191649982945,9.46230248307587,14.8267355737631,9.5671084535948,11.958640147719,13.0291906301847,9.08245555533404,10.4682925127596,13.0775913413594,14.1753824052223,12.5762608341046,11.4356710230683,8.21375795676782,9.28065445176712,11.1427118489867,8.82841392426757,8.40890434921984,15.3890940213124,13.7639149689976,7.78372204220893,10.0412571797147,10.2623606644056,9.82551415583552,7.10838697642445,7.47669319646732,12.6255690914765,14.5197459433618,12.3342548514629,11.137876055165,9.23191845499077,7.9130671751221,5.97562611313527,13.867772588569,11.8143136753196,8.51745793392603,13.7734702899402,5.56200351203061,18.1095066173594,6.17356430304307,12.2187138499556
7.53061546096823,15.301970430464,7.80129203231808,6.59268023286055,9.1566213189483,9.71466742733199,6.41790413465017,8.74886303198531,8.79610067451744,1e+20,10.8725538905345,7.58055192298987,10.79451158223,7.35237507092987,8.75288837151658,5.81340436996107,8.90897392816737,8.55590122226141,4.06727191914423,8.38261573064954,10.6918078059887,7.14613546081539,6.54320625519241,9.64076840640622,5.91014639031926,8.57719221074298,9.95083489789888,7.83102512156271,6.25613485165373,7.06563173874612,8.12151100619343,9.34342095917564,5.97677586744421,7.48138353053481,8.89300440345556,10.1938038439943,7.25808648018281,5.7417701072186,8.70956331772163,6.79833322132953,5.89776428412617,9.79720347258538,9.44636280080769,10.3428735795365,7.81512815644516,3.52821335977104,5.15507923441632,10.1099955144645,5.77304317881595,7.62123066367256,4.72608079720454,10.5108946691828,10.1207000954074,7.8880856766342,12.614857295232,6.27416554933396,10.1874941824816,8.05037740979459,5.51715484050876,9.48853708711807,13.2119396873038,8.68722038098987,10.727213975959,6.99653160147061,5.90496670946147,12.0162770831361,8.14395274752526,5.27495310877186,6.7034906901032,8.00712448732826,7.84092029220946,10.5365302075239,8.53645120728383,8.3568960375938,9.05686685315568,4.72615453669908,5.19126521384073,8.98350111300028,7.56229712610708,7.11894634541529,5.06245191305538,8.70366425287903,5.57702853929478,4.84410630177756,6.21104291889118,7.93637488907296,14.7595113066861,6.05460085053234,4.46672626422846,6.85997339153153,8.60986843212256,8.73575765757664,7.73947892860192,10.5276553442481,4.36698667630963,8.54922155446982,6.33141622094921,14.4708131406214,11.322254692614,6.31350915223089
9.70585819081077,7.04096116914636,11.8929488226349,8.02487163814847,5.47080822771349,12.393183083166,11.0614751136896,8.21240261620918,14.9975002365956,10.8725538905345,1e+20,9.93126898710999,12.8388428597045,11.6768362544383,12.5322800043413,10.9930313863718,11.9316942680927,12.4310613641046,9.85689365415924,9.0800625425126,17.0679120590783,11.8354227960181,11.5334253678023,7.79336801872678,11.7597358911021,10.7458412699313,17.0181417648648,11.9832346446925,10.6448852071397,11.8130942617578,12.9826145662725,12.1088950221043,10.8008101253267,9.48700790005718,14.9937764216929,10.1920344931516,13.8651551622794,8.22268658530514,8.82525277951726,8.9865047981545,10.7334906245818,12.2904981438111,14.2967808516575,10.0348606158878,11.2096150616982,10.0932283152286,9.55632964640719,9.95294444201344,8.21161308711981,6.43285426152494,12.3467354354676,8.31121398338026,16.2970811781113,11.6152007173566,3.34807396342707,11.1388133907285,11.6051016611445,13.2315795828174,11.5817264956851,13.3786851135117,6.01017189730122,10.301599252522,7.29726395448774,10.5139275047785,6.97736050021073,8.78759956133447,11.7039419791494,8.88050398533722,7.9356191298463,7.82924690289971,8.01093935751375,13.7504627913828,11.7741485850405,11.4492010679744,7.49780223965001,10.2472735029198,10.5396664917786,9.27195860749154,9.70587425966067,11.4172556850272,9.50629586922936,10.645471458686,8.97526552944304,9.98660203316629,11.2889354449985,6.25469063165646,13.6351492235905,8.46704019855628,11.0244333103986,10.6529666347768,11.5947653938104,13.5952963549856,8.14242023793689,6.60589572900127,10.4901845525477,6.17845093235046,12.8643139042181,5.2172208485424,17.7969175915017,7.4242261007865
3.58566908767564,12.1890399738522,5.9127282603735,5.21014858109921,11.5864468814312,5.30999503496198,2.95385845975404,8.46551430264577,7.76822045107866,7.58055192298987,9.93126898710999,1e+20,8.04230937733449,8.7166974106976,4.33314169607494,8.61337109615832,9.33975027829176,9.93417547302379,5.49391844408553,7.0985431476507,9.66063626743027,7.20022052782767,8.57389157009765,9.64358114373791,6.53598357287783,9.20154836182988,10.9601206613185,3.12944002299101,7.66654432880781,7.87880919625673,10.0041609007706,9.60761844295833,8.41454717190651,8.19607446581728,10.2465106087078,9.30921582796437,7.53243507248999,9.41918777627916,5.50962180518527,10.6402816894851,3.48039508830909,8.01850623770745,9.28649056676801,7.36285712532073,8.71993593287948,9.01607049651086,6.93902444182907,6.52463619776695,9.88290047466543,8.4080955118781,6.7928919167058,8.63781943579954,11.930703294518,4.44935824965014,11.3888572725866,7.39018442332803,10.9600292178831,3.93646008190415,7.39933324298087,9.37664272028828,11.7352297733436,9.4527038184194,9.91063790234085,6.74539756178368,8.12617440157345,8.26437232694862,6.77481293058612,6.27616462919908,9.85831582444373,9.91818587452993,7.01861535452658,8.32908197918352,5.22493214330095,6.89497787681451,5.45834619524624,6.85263978641431,6.42682665855432,11.2934904457147,11.762448638126,2.58431775159071,8.30858944209059,9.75388016915645,6.90289483785124,5.85552827655838,3.04533669543559,7.36905859284375,13.1497085949328,10.6098156583613,9.90683397179737,9.36940942058461,3.63306963755961,6.56149863060333,10.2194561931892,6.14641634793223,7.79937837910182,8.01724580041794,8.37293484570544,12.1132806212224,10.1285659909286,9.75283900937245
11.2162225898736,12.7174780479384,12.7859008140905,9.99199926872992,13.3488783370064,4.46519189990726,9.35607480364073,14.9985962419648,8.34399500568306,10.79451158223,12.8388428597045,8.04230937733449,1e+20,6.04454254116834,10.7327790781891,13.7411565757966,5.1057006144932,6.57651880926204,8.47930593098787,14.1937525654418,10.8712927909328,4.79662681338205,7.6268121579974,8.84671125034846,6.7742224529629,5.87294076516968,14.0271579033171,8.76280618770766,6.58244095463349,5.65636221015498,8.16235639192815,4.89043195740175,7.88187053953998,13.6844325724263,13.1752823121097,6.49686114214303,8.83212307552346,12.3193106464961,12.340880782723,14.052284867751,8.55050646264813,13.6994959455289,5.88883683430034,14.7652046758304,5.85453340361924,12.2599201180673,7.59060552469607,12.6641189116267,12.4519444020806,9.41018307102999,11.257065160268,14.9966930814118,15.2236237393728,6.59301498030641,14.4834702015196,6.66221987698922,7.96037137379028,10.0770073398252,6.82868271458542,3.96174095775964,13.7524775804791,6.81621725792628,15.8313614628135,13.088434260706,11.7793362939223,9.94086667592495,6.26569561844081,9.96393057917684,13.8704249623208,14.5895393963095,13.2132438123054,13.1274978178716,9.55920822618593,6.25131536817873,8.11420643877099,11.9587070808514,8.31975726346571,16.5353706139076,15.3091751777468,9.27894572003841,9.5066674016524,6.01287028300184,8.11535085623424,8.09342752817662,9.86106168614841,13.1574521888105,10.5161744627539,13.4470721405469,13.4253261761449,7.74731574868537,9.9304693456322,4.68345857912906,14.7418357952577,8.86701649837574,11.7408829915115,13.8024633800513,8.34708083411713,16.1515296178029,9.18027624410905,12.187074751406
10.771526483728,13.2290107450835,12.1202288966115,8.38204403524951,10.4343942513041,7.31490820847767,9.21784045774329,13.032578130338,8.51952168666552,7.35237507092987,11.6768362544383,8.7166974106976,6.04454254116834,1e+20,11.2455430062232,10.8248437440232,2.35370786758679,2.41561391562663,5.99941316874327,12.7494828036924,11.719407362529,3.69961719794698,2.80374517576377,8.36917843618936,3.66599972242354,5.30596167528787,12.9048917846784,9.47906496335222,4.29697587640752,2.70331802415206,5.04270966479116,3.01879276251655,4.32937640559982,11.8894112217977,11.4211240037002,6.91683679930523,7.67482764564376,8.47983792986435,11.9938973975217,10.4964872554287,7.46091701837608,13.3955425416925,5.3899903223066,14.3522622594137,4.80742265967732,8.54593514662248,3.6929338839459,12.8554003876478,8.55610729448631,8.27636157705255,8.84048219283888,13.8373679583716,13.4088478190334,7.46262285320924,13.2806616016296,3.54408396592904,7.21048573451341,10.6145900535334,2.61601533050061,3.48137495206159,12.5826426498014,5.74317654717057,14.5453860841923,11.6485811272271,8.5143759509165,11.4574725108431,5.16858001801063,7.19801080276415,10.074153285516,11.2204935807343,11.696769827246,12.3054157905557,9.68243580286389,4.81713305631939,7.81023718222554,9.77662061477375,4.87168075030679,13.2819342289127,11.6188190707419,9.2514454982786,5.87559633475409,3.58928201333829,4.96920533905539,5.07368457801756,9.255070177942,11.4817320164735,12.2935642151548,9.63540483136613,9.89941081098823,4.68462330520739,10.849824783557,5.71488318136296,11.4385327582259,9.89852498924444,8.4666934008442,11.9320529478961,5.82145147729921,15.5248607239166,10.2609632449573,8.48846839455925
4.85693999772945,14.6323439901428,4.01214172801668,6.1987243947676,13.7727770618392,7.51925556602833,3.51566297030205,8.97909657218159,7.89839738417706,8.75288837151658,12.5322800043413,4.33314169607494,10.7327790781891,11.2455430062232,1e+20,7.72218233142768,12.0129885178005,12.0342235495445,7.24332851416646,6.99329297775374,7.87985196106808,9.647489355285,10.58428910672,11.7827566066543,8.54435932814729,11.6217935013731,7.97041208566793,3.24517436695413,10.5430079490332,10.2477464326804,12.5243931791176,12.1117679907131,9.73491595593851,7.35782819383741,8.44244426239294,12.1449078632412,7.04780961817743,10.9273403989745,5.99501528693276,12.7289499822165,5.18581961419597,5.2957685992243,12.303756410652,6.60422956953241,11.6696838814119,10.1521399958361,8.91921311505312,5.33631425649698,11.3509895217093,10.517601200589,5.96756562149795,8.19128002869948,9.08638713602547,7.355936252146,13.3100423380392,10.4757556175029,12.9632844928933,3.21683826378831,9.48446595906543,11.7631267828279,13.5997096107839,11.5560292456376,10.1380704190746,5.91485300313666,10.0366498685739,11.4376011076639,9.91975921754094,8.72499873956786,11.2758629606079,10.9479437113521,8.82172143051948,6.13858363573216,5.29801191600721,9.36942269918226,8.79442332560091,7.90038964312248,8.38652429204217,11.8576047640516,12.0290787282657,4.63175491301504,10.3253546221936,12.8209449557591,10.0296095689857,8.03447750713162,4.08488699465852,8.76515380359229,16.849802936937,12.066491678622,10.3024895655232,11.1629833135681,3.25803587125228,8.76787900961988,10.9747502144992,9.81722904214256,8.20673821689565,9.71221734705111,9.28371553264436,13.8304253317372,8.96526062163144,11.9727602774108
7.52830196303249,15.0396904294478,6.22360930824633,5.89687757492581,9.88120208716785,11.7351353297229,7.15104484868248,6.65059730405315,10.4213827279346,5.81340436996107,10.9930313863718,8.61337109615832,13.7411565757966,10.8248437440232,7.72218233142768,1e+20,12.2192545582837,11.4144630196798,6.56484668356332,6.04265901132727,11.3174307979454,10.7788116602017,9.55122972931074,10.8761145314323,9.01480265441367,11.4841759750719,8.46692707609483,8.51531044553788,10.225117986687,10.6724744390273,11.8762748182239,12.3986561168235,7.97462601017281,4.12944868552231,7.04790599910975,12.8347583615434,8.01815772753484,6.40225688764031,7.45629853694731,8.84196484797754,7.47631882951976,6.60288781656188,13.8864842075025,7.86300468921397,11.79745273713,5.73891335378858,7.55447151369866,7.66015402027693,6.26251296239909,9.06855877538491,4.29999423209416,6.98340761596044,7.2949009650261,10.8789552590553,11.4018799004192,10.5428037406116,12.4655659634741,8.70825951222066,9.10635012240544,12.8965411939672,11.9401098322049,10.9928892233605,7.78997317615172,4.83218907544459,6.67691665092773,13.7443548028347,11.5289901494125,7.6574249395133,6.36519170253185,6.58953945229767,8.09505626362689,8.07359301975229,8.36064954866634,10.7590562099938,10.3405671890675,6.09994344125574,7.65704644583208,7.01397503061559,5.53418729046725,8.59003438311213,7.92667087607689,12.3619282692845,9.09852145079344,7.48188578746694,7.24303755548448,6.8356439585613,18.4394150298278,7.06491523427174,5.14039542231544,9.37600127438274,8.6856226168447,11.8172157113149,5.9675510941527,11.9314982182055,4.32961266102141,7.7107283490185,8.58579232536693,12.9579474204531,12.4877790326156,8.19526936244246
11.6698092353124,12.6800981301016,13.2148136542522,9.26258747384472,10.9111351502703,7.36761153895467,10.1716892172876,14.1446250711444,9.3736292746637,8.90897392816737,11.9316942680927,9.33975027829176,5.1057006144932,2.35370786758679,12.0129885178005,12.2192545582837,1e+20,2.37609117665105,7.35915633895376,13.8068007809307,12.3431633996129,4.4427520902533,3.90790199917842,8.0149982462336,4.95601763944693,4.94150265219518,13.8685514135851,10.0730658081374,4.99261835956989,3.85548772533549,6.14219674638194,1.462664126444,5.28752653011689,12.9431555625314,12.5211294542677,6.41539250302945,8.40775629429492,9.7769796537882,12.866548887784,11.9543844542645,8.60430703871499,14.3089076788826,5.9133215614446,15.1986782248459,4.75292809433414,9.9436726058688,4.96051971795266,13.6428042847153,9.89566852372166,8.46172036250555,10.1674504887189,14.6551445484736,14.4198870938125,8.05108210212655,13.5237411252977,5.0367344556338,6.80108767259325,11.5378816063156,4.16816062181901,3.14290975625729,12.6676686254278,5.22451654663772,15.3264312606876,12.9630978358962,9.6585362697227,11.6483315804489,5.84245349795309,8.60284065947117,11.5661093914199,12.3640038991183,12.9086307448826,13.0685500693985,10.5371120922917,5.34072144918439,7.87975786965179,11.1675124700529,5.97257947463459,14.4492810047649,12.8856143358284,10.2398872752767,7.27001793367311,3.15499695839715,6.16633196691952,6.55224913971434,10.3692763066528,12.5574370868314,12.0677268141391,10.9494704125,11.2675533311763,5.14107731361998,11.6377416324976,5.80281013403059,12.686653685815,10.0059971596711,9.92768782477417,12.9482486212738,6.81999500212139,15.6945214114206,10.5426495852633,9.58496333735601
12.0519282501282,13.2420865944104,13.0756116947448,9.21104498189328,10.8429388228836,8.18518906038459,10.4627681563561,14.0543833402131,9.3898357428417,8.55590122226141,12.4310613641046,9.93417547302379,6.57651880926204,2.41561391562663,12.0342235495445,11.4144630196798,2.37609117665105,1e+20,7.39869128818178,13.7869112166643,12.2702144379189,5.11281938165027,3.24094594237365,8.42136592445553,4.90881121202964,5.61238546154164,12.9645303465671,10.4832157243201,5.61808993736015,4.22567262991624,6.54910086687151,2.65629603281375,4.19979279749119,12.4914136548898,11.6062232929211,7.59605868909832,7.54869315232717,9.34918872585967,13.2563735528288,11.9337973865858,8.8367834993729,13.9031948967605,7.11897233724126,15.3168656223937,5.96649592954389,9.43575489115353,4.61583246538488,13.6978514133143,9.33345026241951,8.7870966162864,9.5741231332412,14.4482174958322,13.2811250502478,9.14240059011823,13.7949759403976,5.659227982382,7.44411022254625,11.7984315899088,3.94538580045731,4.05434059581886,12.8677985745644,5.54119195921623,15.1894002641518,12.7025093638281,9.48180395765418,13.0728902443444,6.87571804393807,8.66451968733972,11.0796579224571,11.9273622895719,13.1910106942305,12.4731746277303,10.313315489676,5.72757275203273,8.72244313932076,11.1983362101809,5.60315653831711,13.9942479418116,11.9489143917075,10.7202783120903,7.04620430324569,4.25515381227918,6.65439692548729,6.75091477693518,10.6401500744015,12.6976876732669,13.8724937737432,10.4792319413763,10.7481895383772,4.70353857589199,12.0842412716918,6.76065342722012,12.1418866582797,11.2175310056056,9.39116850742304,13.1038164382307,6.42467935431257,16.0454171394239,10.2466888266985,9.4715894832166
6.52258595332013,13.4809821504128,7.55115920355195,4.9700838688542,9.20928997571751,7.12608762870196,4.7393690494722,8.75085562643072,6.80856000737519,4.06727191914423,9.85689365415924,5.49391844408553,8.47930593098787,5.99941316874327,7.24332851416646,6.56484668356332,7.35915633895376,7.39869128818178,1e+20,7.97902806881911,9.58759089241734,5.42632265999734,5.63130893698901,8.51259302767287,4.5990407462002,7.42980239450143,10.1681366985595,5.91145653727312,5.74739577452422,5.44313653267185,6.636302990665,7.66520294308397,5.22971763733239,7.07831836677613,7.91279517450475,8.23596154797442,6.57229628276055,5.73371857242887,7.45924363247135,7.90222487906441,4.0263185514054,9.11653477452427,8.08091575609705,9.66181344241688,6.82826368607784,5.10916673588191,3.51044073970327,8.64554089522759,6.32260862754067,6.71682927251748,4.81803612743558,9.80101749026824,10.2599509098685,5.6600646948095,11.2390438290029,5.23657040540112,8.51046752127885,6.71153975073967,4.33894391611469,7.66397311415547,11.2534314761429,7.36899277445554,10.3950416255566,6.33641042058972,5.99140806316464,9.98194807965245,6.67170758560107,5.29170694739683,7.38116930311072,8.33246586816992,7.60525275735097,9.90388651034583,7.25579188716461,6.80970490732496,7.33732663231125,4.44117330989622,4.38016291387678,9.7894062596359,8.7866064304801,5.59892849895352,5.23869156731148,7.5398327889386,5.04044093417591,2.5441697929962,4.92756358641006,7.49042235749174,13.2197226774192,6.90946074646641,6.28248581716161,6.30515220373562,6.74106878411361,6.59196328993728,8.30419027694854,8.37692947779541,3.82514965879173,8.31746865175291,4.8610495281974,13.3738573867908,9.78377140386469,6.48512696208803
4.22133479198414,13.5485023585389,4.89220145053636,5.51477799200176,10.5292228948886,11.923272512679,6.70686384113901,2.5070587495338,12.3547201276515,8.38261573064954,9.0800625425126,7.0985431476507,14.1937525654418,12.7494828036924,6.99329297775374,6.04265901132727,13.8068007809307,13.7869112166643,7.97902806881911,1e+20,12.7622034764139,12.0196891825999,11.5679272598185,12.0518155876636,10.426658144325,13.3025333632349,11.515200956252,7.74255972045797,11.6420913115976,12.0307459504449,13.579152522468,14.1929218253607,11.0897639384306,4.74873673738571,10.7235137656655,13.6925944109649,10.9557278904891,8.27977863585331,4.09947370350054,8.85808133661389,7.02706649252816,6.53302425416529,14.7489379199008,3.10692451413436,13.1700759236921,8.26807794120397,9.64518962915441,5.65888583006498,8.72886150963077,9.72875579992692,7.41078203754046,4.17071561998847,11.2703834352182,9.84882809761761,9.60752903105791,11.5422256585213,14.4126913916395,8.00367646329398,11.0417587718523,14.600872118512,11.0471824980404,13.0675144383078,5.44487424679259,4.39479943308869,6.64675747057564,11.0730339701519,11.4783643710664,7.37796220834538,7.07604207912118,6.01150934319154,4.69387430500901,8.21165216953323,8.65606497367659,11.118565383119,8.67731580313852,6.39615974291319,9.26566238568339,6.0654400480144,8.47146854022729,7.06800759167043,9.75049833469679,13.8250493413672,9.65245611844819,8.78378268485691,6.28169846702253,4.19483060872739,17.6960749129263,8.86617585808557,8.06147690334855,12.2225282306333,7.09382842417955,12.5865794844986,6.08168823146726,9.42946115202095,7.14864280159347,4.38863602561168,11.7880247184554,9.73228253292142,14.6744606068759,8.9221575497511
10.9174214821607,18.8775255367136,9.23360825820373,10.3618938528482,17.0458874017905,9.66911271443825,8.54870893360161,14.3847928186052,7.898795713269,10.6918078059887,17.0679120590783,9.66063626743027,10.8712927909328,11.719407362529,7.87985196106808,11.3174307979454,12.3431633996129,12.2702144379189,9.58759089241734,12.7622034764139,1e+20,9.52696450322766,11.2933442182208,13.8880319614637,9.54503834025532,11.9329588401028,6.58075571139156,7.49145970628841,11.622826430489,10.1116782215316,12.7971605390679,12.2670422816558,10.4436057484638,11.6208312629333,9.36858145646561,13.6512747885861,8.07183545343065,13.871502789495,11.4742141687809,15.4664735269131,8.87429375048678,9.78283480003516,12.2695457547444,12.8398173737514,12.1663009569413,12.5994065806566,10.7065127385139,10.800467838792,13.8439351196351,12.8810791513393,8.40236433395939,14.316621905534,9.1319039518851,9.28142117710582,18.0264223157136,11.6732156042688,12.7853796480176,7.84558181075387,10.1557843671815,11.0829657485163,17.9119821839444,12.3947334587722,15.7609380405252,10.6908877851645,13.4410046349363,14.1280591965674,11.2704696825788,11.903966403263,14.7468711595358,15.1600144706778,13.7898285726568,9.91801786752985,10.2502285880023,10.697601953929,13.133117298159,11.3447277613799,11.0423409276101,16.0571910284004,14.6694399697985,9.353035854047,11.587045094706,13.5532433469187,12.305317173,10.3183827672975,9.0351619558677,13.6998839088318,18.050042282332,14.6435087025603,11.8067248369536,11.445200535542,8.04893532122328,9.42187421417438,14.6298113344601,14.1589260620012,10.9625503699894,14.8668667231566,9.77033125088657,19.2762754143666,5.37082537585174,14.9040329273744
9.56653009212304,13.5990333713567,10.5501464185362,7.76660027079679,11.3465560868136,5.64988248831506,7.76431299784688,12.6641917388708,7.21987319805366,7.14613546081539,11.8354227960181,7.20022052782767,4.79662681338205,3.69961719794698,9.647489355285,10.7788116602017,4.4427520902533,5.11281938165027,5.42632265999734,12.0196891825999,9.52696450322766,1e+20,4.94971228584366,8.47234976127952,3.89307708407008,4.97313330775735,11.7607987668085,7.57067129313334,3.72537467345611,2.16688102551978,5.83688839348934,4.66991588250573,5.00205755277956,11.3560588792039,11.1346773871976,6.6935956008223,7.46460298796016,9.51978861822116,10.7719198467587,10.5096727420192,6.45337010227078,12.2984725418478,4.63150020148986,13.1326012738675,4.09843523395108,8.99615903624391,4.7716278365139,11.4328661003788,9.15478774118097,7.8354597998609,8.31203776211203,13.4599197743718,12.9270482544658,5.26094221422597,13.6542339736572,3.42971553008268,6.95752003585585,8.67465073240618,3.36862741959871,3.35701818268509,13.3900329146637,6.09547250453781,14.1507798738895,10.5991571976935,8.74755981592465,9.79344783390385,4.20680925681676,6.80326851534786,10.5762492006289,11.8659256235862,10.7126017721856,11.7286768892245,9.06178550935229,4.57504316029761,7.85917557234867,8.98916795169283,5.97343923061071,13.6287526032105,12.1154676229135,7.6084104170187,5.4458678846453,4.74430573543554,5.00982007685225,5.18224922627053,7.88222597326601,10.8067459021988,11.1862806973145,10.3073051790958,9.63744617545239,5.21876912313545,8.65821030191662,4.78391229001931,11.7369979596652,8.79236031709101,8.71828415777555,11.6304019512037,6.17859426390645,15.5271282803294,8.70394212137689,9.46290130018656
10.0139100689731,13.4776735498891,11.0760176261759,7.45832582922065,10.0629474014374,8.3712769925892,8.90529692319944,11.7825680101345,9.14824177179984,6.54320625519241,11.5334253678023,8.57389157009765,7.6268121579974,2.80374517576377,10.58428910672,9.55122972931074,3.90790199917842,3.24094594237365,5.63130893698901,11.5679272598185,11.2933442182208,4.94971228584366,1e+20,9.05575227749822,2.82764396237212,6.84952446703752,11.6876913823529,9.02765585771695,5.33559599144945,3.49961744779979,6.36341935791116,4.77866611600924,4.14566609237394,10.7107485025922,10.6296737984186,8.66953108212099,6.9603668801935,7.64824786708201,11.4843537471019,9.87363892290213,6.75551393412673,12.4159696841429,7.2322589249304,13.3419910478393,6.54312915552452,7.46921206254536,3.20471885456948,12.3810905514656,7.96743471074225,8.36722544028172,7.61551247779089,12.7822837154216,12.0868629489054,7.7720191797208,13.0001742554666,4.6888325939723,8.6069141684051,10.2942260799478,2.18204686963082,5.65428896903501,12.5238411536782,6.82605604095726,13.6807246665615,10.7913630112622,7.34690298732797,12.2556220403097,5.780049094861,6.43607847744053,9.03063398853875,9.61360186426929,11.0808460582664,10.8086570603538,9.40491336176009,4.6756156947835,7.61107828361972,9.19490221430209,3.47284559230894,11.6120057320591,10.2986519843563,8.90713077505827,5.70749206238942,5.53447413485763,5.12268124846984,5.03377836892514,8.72585389807367,10.8842894961191,14.3916436439246,8.80244443500061,8.68515194795505,5.29989773637871,10.643164155144,6.59465714377787,10.0226513407574,10.51962182268,7.35889751340781,11.0771399585349,6.2470746931453,14.9798287357358,10.2374086854569,7.70613783536205
11.2537753554009,9.14661518746242,12.3958902943209,8.38479668273664,7.06784679067962,9.32889305481969,10.2650834746166,12.2738945503933,11.5186417046881,9.64076840640622,7.79336801872678,9.64358114373791,8.84671125034846,8.36917843618936,11.7827566066543,10.8761145314323,8.0149982462336,8.42136592445553,8.51259302767287,12.0518155876636,13.8880319614637,8.47234976127952,9.05575227749822,1e+20,9.57355242571138,5.19634965523735,14.2709409466341,10.7703502639264,7.44369950796317,8.88729324023334,10.4845765551373,7.41788001589237,6.83835471154689,10.5354008731809,12.6553828171253,5.33699870694472,10.4062981599661,8.89904209881687,10.7229994965763,11.3863432414753,10.3562118020485,12.2905120892256,11.4684521088709,12.880439177529,6.93222434016579,9.95337913912422,7.05316090008419,10.7590792874332,8.36587304431498,3.68588993995072,10.7819734692552,11.4542561385889,13.824036316765,10.4944438352231,9.03265033456199,9.27527216543663,5.83532905936859,12.3291021764459,8.86103729155853,8.8600497252397,8.97737855162105,3.79094728591744,11.2292089638264,11.5744684029828,9.10936990388086,10.2877307130478,10.2554071626938,9.82300711118889,10.5435761637314,11.2790225938976,11.6640465112293,13.384984892041,10.8044477223274,9.70887927667598,8.32524334699503,10.8554039157454,9.12810801588524,13.0626343855365,10.5673834198588,11.441834816218,8.00316146802587,6.66371720768468,8.27795561405243,8.45995353322217,11.1446943748935,9.86197808586497,12.0246966559986,9.56781589755409,10.4537306023276,5.69109455250498,11.119112884521,10.3115470010809,11.0613111750564,8.37663595800346,10.1067846123477,10.9046472022914,8.66523334408771,11.5583792115129,13.4022129371155,9.10670426706044
8.17181676007409,13.8383917262801,9.25464562567219,6.55744932900039,11.1213306558248,6.63709408566307,6.84539327050898,10.9976895819315,7.52468889774818,5.91014639031926,11.7597358911021,6.53598357287783,6.7742224529629,3.66599972242354,8.54435932814729,9.01480265441367,4.95601763944693,4.90881121202964,4.5990407462002,10.426658144325,9.54503834025532,3.89307708407008,2.82764396237212,9.57355242571138,1e+20,7.0920402247604,10.5091312078146,6.90202548829333,4.94458554461479,3.07267334899572,6.46222369659407,5.71797029562772,4.84475154109372,10.1524048480036,9.99995457578157,8.74863213524963,5.93048727547469,8.26303537407057,9.9841829059248,9.85352737510666,4.56348168457797,11.0539882697209,6.21005601892324,11.9403613221632,6.39527367832038,7.63938939064992,3.5957127487954,10.9368435709369,8.51249741405187,8.65961711609479,6.44707276674687,12.0443834923813,11.5422226237343,5.51874891324239,13.342900139803,3.86480399186075,9.15733741766715,7.91881609352859,1.86200471341688,5.56382939742688,13.0331647514688,7.55121825110609,13.28217641115,9.48631579398259,7.42298799334256,11.052697821587,4.07887207131173,5.36636800711673,9.18246611998968,9.79884096617085,9.8457243721838,9.4506670770729,7.69569169687414,3.39349269905206,6.83197363265571,8.17280436796126,3.15008411315926,11.6703962617239,10.8634246518691,6.53795516636535,5.66776634969095,6.45129849734089,4.57660466848626,3.97453687687655,6.52763008015463,10.0604880057317,13.7758816221097,9.46492755247527,8.57796587506651,6.14398890727902,8.45406873484705,4.94463411384434,10.1466332908261,9.5201618968674,7.02035973936656,10.434486836064,5.96726587379781,14.9521088113781,8.81459091553997,8.46137989302687
11.4779165846662,12.0407581932799,12.4647276834915,9.03122517307934,9.71386058797343,7.52731304271163,9.76975664215292,13.6732465216045,9.38008929681336,8.57719221074298,10.7458412699313,9.20154836182988,5.87294076516968,5.30596167528787,11.6217935013731,11.4841759750719,4.94150265219518,5.61238546154164,7.42980239450143,13.3025333632349,11.9329588401028,4.97313330775735,6.84952446703752,5.19634965523735,7.0920402247604,1e+20,13.5033719902676,10.0564497904576,4.21959793276854,5.82608197275884,7.5836801272241,4.40592288915625,5.03383589691105,11.9856329001946,12.2404015536377,5.12891500978777,8.76443207754505,9.72649731378191,11.8676561143163,11.3509985834823,9.35016874474578,13.1414700408252,7.62297131395537,14.3093562934116,3.06150049217066,9.72042897371529,5.90232059689604,12.2357181320083,8.78274965647857,6.08546131531275,10.230509215524,13.7540160571396,13.9473470411983,8.61334344006927,12.4333245505646,6.25877708158327,4.70272184147004,11.3379007014865,6.1952737020295,4.97259993952925,12.0206056413036,3.03196543293837,13.9435595239402,12.0506214042142,9.46738659137701,10.4685663831664,7.46597462480574,8.81532986210374,11.2049993666999,12.5631573278887,12.134279027094,13.4913552280624,10.2708919684463,7.35436865744469,8.70753498039117,10.6724743946503,7.77373702646273,14.3261965382077,11.8437132750972,10.4469228894232,6.44633526561547,3.67502925680612,6.40123245865858,7.31196581227588,10.4262430754448,11.3170800526833,10.6262847696258,10.3589804309902,10.2838057057402,3.27379511748343,10.8350387374302,7.65292415484493,12.2442405973043,9.22719498213672,10.0026431461641,12.2643148167261,7.00702819829644,14.7688647353467,11.0144739456024,9.66355901370594
11.1184528604173,19.2450596947911,8.23060552316543,9.85942158366641,16.1783356595722,12.0928154931888,9.28099600608934,13.0284592825646,9.79489726680769,9.95083489789888,17.0181417648648,10.9601206613185,14.0271579033171,12.9048917846784,7.97041208566793,8.46692707609483,13.8685514135851,12.9645303465671,10.1681366985595,11.515200956252,6.58075571139156,11.7607987668085,11.6876913823529,14.2709409466341,10.5091312078146,13.5033719902676,1e+20,8.96387145546825,12.9891552107349,11.879951735098,14.4717781221412,13.8018166272464,10.207429239508,9.65412328529254,7.44560817471481,15.2223502553211,7.45503785577552,12.8112243084237,11.6339654972175,15.0958157632572,9.67528191346603,8.01790034084685,15.0709157255563,11.9282954880367,14.067164473765,11.4994973552802,10.8068277348617,10.3353341696944,12.7538053639509,13.1701039063144,6.7321330023256,12.4214988493255,4.00530752086535,11.9733338590327,17.5551802012918,13.2795444211356,14.2393370445047,9.13870189934038,10.9596192777814,13.4037292911145,17.5962008201307,13.1738985044618,14.1797381668682,9.61975679262139,12.7337525664818,16.8759781805788,13.3140818607245,12.0647339523072,13.3902046800829,13.3294635949207,13.7455077156595,7.5902871801539,10.1705206948583,12.1031965648596,13.9257328289746,11.245290466322,10.9207306260329,13.9706480406004,12.1550798856047,10.6611448133451,11.7380014213989,15.0279009392092,13.1563941136357,10.8973256170633,9.68127038670459,13.1276262616361,21.3865040060671,13.5132270960097,10.2333482461099,11.8404400630315,9.56021657515,11.9471457606121,12.7882391521283,15.8356261485393,9.80035857534732,14.3032640927861,10.0684583437704,18.6713455585573,7.78487114987816,14.4190104267081
4.70107470292455,14.1852984143872,5.52119417008148,5.77359354277289,13.0739253498754,6.13674734002605,2.88488928929049,9.54593865285053,6.99821380661403,7.83102512156271,11.9832346446925,3.12944002299101,8.76280618770766,9.47906496335222,3.24517436695413,8.51531044553788,10.0730658081374,10.4832157243201,5.91145653727312,7.74255972045797,7.49145970628841,7.57067129313334,9.02765585771695,10.7703502639264,6.90202548829333,10.0564497904576,8.96387145546825,1e+20,8.67259938623386,8.29523831946931,10.6798465426147,10.2365154082211,8.66895413822089,8.30719701036842,9.17931355818396,10.2991800065289,6.91855401714943,10.4249755806401,6.18356605257024,11.9225947679508,4.17699814681387,7.70278878930744,10.0840018745405,7.82357027622774,9.64946315279004,9.54233565681842,7.58948846427417,6.74275436483036,10.8604544538035,9.49849506126391,5.69301768543023,9.63266913221329,10.3168132842225,5.13325136172536,13.1659874246819,8.59404598614383,11.1513993694619,2.72616680285134,7.76635184762584,9.7936215202157,13.3607942859154,10.0799591569053,10.9428596095135,7.0429675731683,9.41139097643401,9.93686729892862,7.83181519608964,7.78938256671802,11.0451793379893,11.0301175098272,8.7109597330811,7.61527098234342,6.52253737206877,7.72104113974156,7.49290450810399,7.23203615272916,7.22635814650297,12.1002181458538,12.303842591854,3.49819570292295,8.99983343112473,10.9054679030979,8.45868461210322,6.51535258336313,3.29926405504193,8.8382488025719,14.7800104993059,11.5801506189557,9.79196675507384,9.82156233261011,3.09159563935597,6.48531103524865,11.1716977246696,8.4044129217938,7.9170828529792,9.70482624841535,8.04250854562,13.967382304054,8.26415926730496,11.1292559719134
9.49752695707015,13.1347989398781,10.7858978987211,8.13167356310885,9.57591813197137,7.35240583538558,8.29293848426268,11.8918646911174,8.84609568091854,6.25613485165373,10.6448852071397,7.66654432880781,6.58244095463349,4.29697587640752,10.5430079490332,10.225117986687,4.99261835956989,5.61808993736015,5.74739577452422,11.6420913115976,11.622826430489,3.72537467345611,5.33559599144945,7.44369950796317,4.94458554461479,4.21959793276854,12.9891552107349,8.67259938623386,1e+20,4.41472488214415,6.12970840184927,5.34397978431858,5.10889978894135,11.1948031443085,11.8731553745487,6.87728876746372,8.06353166786516,8.60267600560576,10.7636063230727,8.92916929509017,7.30725339052561,12.7023978499906,5.66027600582901,12.9677343133627,2.69620561888213,7.82518512814675,4.97222430858547,11.9166506962663,7.74232648131137,6.80912268515097,8.51766814584881,13.0597886435519,13.8337388829686,6.80006781772756,12.7931446874445,3.26182763401693,7.33390190141687,9.52076215811686,4.23180402547171,5.39532964326888,12.7797337869628,5.62929827979265,13.2601247291741,10.5832615328831,7.62637269431917,10.1344222854304,4.97338401042779,6.01582659418756,9.3887079486074,10.9096127818533,9.89226060734888,12.4430435089183,9.34367402166227,5.66393804002507,7.61855980541235,8.54453308790074,5.59970796903274,12.5052287665621,10.9526651475571,8.1275157454904,4.60973838282792,3.98075845543921,3.45105550019157,5.5946482892227,8.25977087743298,9.9820929835718,10.7319563977675,9.08343055712175,8.58942771050434,4.37732187632172,9.72475703100926,6.58673219720964,10.7804816391867,8.62333561901145,8.49055155146552,10.5319893201394,6.78840148837346,14.6618379634528,11.1311825457194,8.11996959558137
9.88299957601863,13.6666152576015,10.9653140551994,7.73819305396371,11.0049359564263,6.73698635341735,8.38210328270911,12.4893745677307,7.99703242255426,7.06563173874612,11.8130942617578,7.87880919625673,5.65636221015498,2.70331802415206,10.2477464326804,10.6724744390273,3.85548772533549,4.22567262991624,5.44313653267185,12.0307459504449,10.1116782215316,2.16688102551978,3.49961744779979,8.88729324023334,3.07267334899572,5.82608197275884,11.879951735098,8.29523831946931,4.41472488214415,1e+20,5.54617394619759,4.38144397634391,4.83129951833235,11.3471500470076,11.1808988850585,7.37796439427901,7.58972975099262,8.85228681934026,11.1896162395529,10.1644727748365,6.40078279225326,12.5774994920287,5.11377076068215,13.461145156235,5.09262212057111,8.63503044731513,4.13486962781355,11.9580929669926,8.85007127888138,8.14742191150247,8.29104226012407,13.4842158892896,12.8340391819348,5.87183355639828,13.5330493250167,3.36077653879237,7.54080637917411,9.45961518984061,2.44800271297101,3.67481191955333,13.1911996705565,6.51255718030527,14.3007475243337,10.831093399234,8.29844877465896,10.4683187944546,4.33631588285841,6.55958344134253,10.0353861988129,11.1312478548489,10.8947211376506,11.5871611017747,9.39651471275535,4.13453486210365,7.77221619200458,9.15012432153532,5.3522531909039,13.0844938933562,11.6634354966127,8.14044354396136,5.44751757301029,4.73088780102666,4.91271693898891,4.87273707351116,8.29799807024296,10.9675341474787,12.2019759446157,9.75243930432976,9.42356500930854,5.37197530554147,9.49825624178531,5.30308073895557,11.1869921586547,9.41747126978082,8.33094770021331,11.5649121802932,6.28444023308083,15.4895571411943,9.23981756084868,8.77854277920125
11.8444284635196,15.626602489528,13.2489436741613,10.4042691671135,11.2945698597934,8.76465021385745,10.0503533166302,14.0004558395385,7.85954964121719,8.12151100619343,12.9826145662725,10.0041609007706,8.16235639192815,5.04270966479116,12.5243931791176,11.8762748182239,6.14219674638194,6.54910086687151,6.636302990665,13.579152522468,12.7971605390679,5.83688839348934,6.36341935791116,10.4845765551373,6.46222369659407,7.5836801272241,14.4717781221412,10.6798465426147,6.12970840184927,5.54617394619759,1e+20,6.49082893765372,7.32274398562279,12.4925790714755,11.1171671856678,8.35979533784989,9.67188005666461,8.70450177439536,13.0080562166887,10.1165103078272,8.7746120276417,14.7256586718876,5.53022663188569,15.449313947595,6.15986362708507,8.44080391075927,6.42258567869879,14.2374614633207,9.12175544431244,9.66152495862884,10.0309554835445,15.2772609676378,14.8559109190806,8.26905043214487,14.4908041320769,4.92405998110153,8.6697998243874,11.2696246118414,5.47002517766369,6.00041048925549,13.454376118494,8.10832629051589,15.5155897473008,11.7213572122523,9.66204692661852,12.2671024746211,7.12027565389711,8.77771616290921,10.9245117557335,12.6354161567857,12.118745295741,14.6753520048847,11.2714286520819,8.02773199848837,10.334585387321,8.96678265515169,7.2898066679182,14.0747738365576,12.5413319933392,10.0146674121992,7.67100208263231,6.11865894519721,6.72880087857228,6.31731948082943,10.0096487339185,12.4665484228683,11.7029738129443,9.54550793664999,10.2520248350379,7.3351010008225,11.7499727976538,7.23884045220482,12.4888946816979,11.1336650775192,8.49745970035681,12.9158484839324,6.7349820833256,17.2259963615298,11.5980480038367,8.54631694135431
12.1103991072179,12.5437156033954,13.4989515751597,9.48747802081652,11.0534060457744,7.1541121735885,10.3652107716596,14.6306887019653,9.12470985622432,9.34342095917564,12.1088950221043,9.60761844295833,4.89043195740175,3.01879276251655,12.1117679907131,12.3986561168235,1.462664126444,2.65629603281375,7.66520294308397,14.1929218253607,12.2670422816558,4.66991588250573,4.77866611600924,7.41788001589237,5.71797029562772,4.40592288915625,13.8018166272464,10.2365154082211,5.34397978431858,4.38144397634391,6.49082893765372,1e+20,5.20148732636614,13.0706136990538,12.3741626939047,5.6470530800352,8.44318688546696,10.0992397790215,13.0538521528978,12.5747514985597,9.1080500374039,14.3703106333786,6.41638829405747,15.4799686322275,4.70067022606324,10.4017441189284,5.24095826039992,13.5744021823902,10.1459127819079,8.30285879733411,10.3697051565798,14.813985488023,14.2581343319613,8.49253915990869,13.5655990814486,5.78129263813342,5.8728338897875,11.7465003626806,4.84664917592102,2.78996392427242,12.5690498115153,4.36986946197597,15.4497349758282,13.185316020593,10.2699849586098,11.8059487500816,6.63342638816901,9.34598938344282,12.0628801397279,12.9435394704268,13.4445690692207,13.3043031771248,10.7248095075439,6.05277204777673,8.3388222328161,11.5225779771359,6.66227420319274,15.0355751792078,13.1279728844618,10.6762149130856,7.62827759002904,3.16832543755426,6.91144025374828,6.8739052214738,10.7458581004782,12.8649301434606,11.958780169593,11.298483619437,11.589579731497,4.80859664826503,11.7229414412054,5.94342054945098,13.1517489603152,10.1513598792992,10.2325198597802,13.4464937456874,6.50011431489598,15.8797824637076,10.2349164845495,10.1359595078006
10.0088791615593,12.7822972891353,10.2275943909066,6.58248522646727,9.03262728160999,8.01412055101385,8.28589717574951,11.4642522572251,8.27921048309291,5.97677586744421,10.8008101253267,8.41454717190651,7.88187053953998,4.32937640559982,9.73491595593851,7.97462601017281,5.28752653011689,4.19979279749119,5.22971763733239,11.0897639384306,10.4436057484638,5.00205755277956,4.14566609237394,6.83835471154689,4.84475154109372,5.03383589691105,10.207429239508,8.66895413822089,5.10889978894135,4.83129951833235,7.32274398562279,5.20148732636614,1e+20,9.23306492875638,9.03790649442339,7.49147211234417,6.00982657999623,7.20954924133824,10.6218263803468,9.94530546081512,7.37063397121704,10.8401781068898,8.66323679494438,12.5499003014605,5.99547697664036,7.02091442692931,2.92827278227942,10.7344466001965,6.50903554176226,6.48628537608532,6.75687466453689,11.6265887805241,10.1897800798783,8.5808647948684,11.9950581143735,5.98093938348548,6.61073192886608,9.92483696405554,3.87071261928821,5.94156650585514,11.570891049818,4.73129199391284,12.2515430146804,9.66141023216887,7.30029475807225,12.0904837166046,7.42031165103674,7.06434784072989,8.6208820530637,9.72472482488125,10.9001613162734,10.4105527988353,8.7273530631544,6.28998770755828,8.34126830158478,8.71302851514879,4.96639045946749,11.5177124675165,8.77681573967299,9.22369801379107,4.58904880183907,5.62188522219344,5.82580242341417,5.25427461268977,8.7341035198724,9.92029098590817,14.3024182387929,8.11419111654963,7.56231510530039,2.56300739884446,9.82958892491609,7.5005955946787,9.4963256338481,10.2820253856263,6.74894897703247,10.8034935814502,4.91624252546231,14.3041334693451,9.49221355615437,7.94921851590005
7.03304596665519,13.7378164083262,5.9550631949292,5.74464572440853,9.26674100065757,11.6333455552201,7.1805279545232,5.6626754616621,10.9416581345935,7.48138353053481,9.48700790005718,8.19607446581728,13.6844325724263,11.8894112217977,7.35782819383741,4.12944868552231,12.9431555625314,12.4914136548898,7.07831836677613,4.74873673738571,11.6208312629333,11.3560588792039,10.7107485025922,10.5354008731809,10.1524048480036,11.9856329001946,9.65412328529254,8.30719701036842,11.1948031443085,11.3471500470076,12.4925790714755,13.0706136990538,9.23306492875638,1e+20,7.50526339935599,12.7814533622702,9.29309169575152,6.56136748377752,6.47050267941511,9.10089509736892,7.73597365687921,5.45890656175684,14.67171382066,6.21133586656306,12.4424758457169,6.55981280285114,8.49814006746036,6.20079139679344,7.13284327469738,8.16153129296455,6.31342222274663,5.28167465039988,8.36682194217084,10.7135915619381,9.64219927913852,11.4314517439819,12.7676014012005,8.78996630771385,10.2397148269069,13.590619295389,10.5249053290014,11.3190152488978,5.6165785408801,3.50592099420307,6.75785444186961,12.6015984675973,12.3145689732872,8.4090276947391,7.08857646796779,6.67139823752951,7.36079333502621,8.72862307444235,8.45283194995814,11.5413832586135,10.1209332457535,5.85022319989221,8.88522944077445,6.83456853309035,6.16665641754103,8.62427372156927,9.14168544216558,12.91212604224,9.99368688885605,8.47648578006405,7.51407001495208,6.0266066354866,18.0850467618235,6.96521611254242,6.59265459843463,10.4625308241171,7.97120685297508,12.4315712443544,5.87304506804077,10.868868731758,5.22326557299364,6.86099481045766,9.93178513479385,11.1438315755328,13.1446092842822,7.92519433216001
10.8623073707602,17.7632188813385,9.31672714450329,9.41065215264105,13.5381106725506,11.0626016004832,8.46147087533709,12.097567771219,7.27142419703583,8.89300440345556,14.9937764216929,10.2465106087078,13.1752823121097,11.4211240037002,8.44244426239294,7.04790599910975,12.5211294542677,11.6062232929211,7.91279517450475,10.7235137656655,9.36858145646561,11.1346773871976,10.6296737984186,12.6553828171253,9.99995457578157,12.2404015536377,7.44560817471481,9.17931355818396,11.8731553745487,11.1808988850585,11.1171671856678,12.3741626939047,9.03790649442339,7.50526339935599,1e+20,13.3974793395022,6.93740236508462,9.5362744472177,11.1395737706991,13.1583107716353,9.15399255255747,8.37557007051775,13.8177565089893,11.9557445623837,12.7131945278791,8.6177368496675,9.14536258764554,10.3876123422971,10.2255580954258,11.4168832819571,6.33361728133181,11.4926697885972,6.20160011558289,11.6678799353065,15.0971049508127,11.9045821673578,12.6676318335502,9.23666111987067,9.91560263165821,12.319429071367,14.2306741396976,11.5204551265718,12.4303748950346,7.56052083614568,11.2110258319948,16.1559181906665,13.0386714089215,11.5523926736019,11.6528646660955,12.0715806579987,12.6876735624134,10.063498679351,9.15906513963811,12.2008858945622,13.1985420534215,8.39170595929432,9.46506673229197,12.5536183592311,10.3244744230987,10.2852606773488,11.1054209379512,13.3687280407946,12.0170980924999,9.14298688736883,9.14044859847859,12.0257654159208,19.4786184355759,10.5157524285331,9.12212617306306,10.5892143962378,9.86474633264645,11.093417951722,11.4101025965399,14.5572723886334,6.39380574706912,12.9917769674201,7.54525359065047,17.3756306787566,9.17670678557653,11.4460526723509
11.7458448131387,10.9656462170544,13.5518672238014,9.44460233786913,10.0384741030249,7.19736505696786,10.0509069455978,14.2887123233952,9.79462444570077,10.1938038439943,10.1920344931516,9.30921582796437,6.49686114214303,6.91683679930523,12.1449078632412,12.8347583615434,6.41539250302945,7.59605868909832,8.23596154797442,13.6925944109649,13.6512747885861,6.6935956008223,8.66953108212099,5.33699870694472,8.74863213524963,5.12891500978777,15.2223502553211,10.2991800065289,6.87728876746372,7.37796439427901,8.35979533784989,5.6470530800352,7.49147211234417,12.7814533622702,13.3974793395022,1e+20,10.8606104749561,10.3664461800543,11.6881345670574,12.5522449094671,9.99961630402344,14.3545800066529,8.37735954892841,14.5739182629841,5.37405417335358,11.2383432102662,6.99981217528675,12.1930742063332,10.3925636165779,6.79839423190711,11.4015073239093,13.9332957131601,15.3324970423317,8.72330019436387,11.6633788980362,7.69558192426508,4.24587539547396,11.8156675317272,7.92723109227984,6.24746479488316,11.0354945576418,4.25016941525879,14.0737724840206,12.8621621202445,10.8604793756437,9.48742768061199,8.49362039953366,10.3493468679619,12.3645748526963,13.4807802620142,12.7048490653089,14.7099754783896,11.4892787656419,8.88163281858865,8.38913333732478,11.1963683879436,9.1633923966199,15.4564323032359,13.6121134263435,10.8385559354665,8.53015274389874,5.17969385114159,8.09038777773075,7.46832228575903,10.8691196655207,11.6629365353823,9.06673344020073,11.4533233467605,12.2090914002869,6.55065349592327,10.9095611528474,7.70289178929664,13.5780673674829,7.7971694491326,10.9554868807954,12.8039418910987,7.56290767127443,14.1819136564757,12.2229322014801,10.5419643154267
9.2152347415101,15.5467451045859,8.59227139996943,8.075786839314,12.8624640368047,7.47920174897193,6.78376430276268,12.0441947572149,6.5115701962611,7.25808648018281,13.8651551622794,7.53243507248999,8.83212307552346,7.67482764564376,7.04780961817743,8.01815772753484,8.40775629429492,7.54869315232717,6.57229628276055,10.9557278904891,8.07183545343065,7.46460298796016,6.9603668801935,10.4062981599661,5.93048727547469,8.76443207754505,7.45503785577552,6.91855401714943,8.06353166786516,7.58972975099262,9.67188005666461,8.44318688546696,6.00982657999623,9.29309169575152,6.93740236508462,10.8606104749561,1e+20,9.84464428987061,10.7724438064197,12.7739852452418,6.5894997099079,8.73582640887376,10.0161313668698,11.9169072037256,9.18240814668424,8.57655165930637,6.47899808947106,10.3896932656285,10.1520748872387,9.88373053805943,5.51615753620945,11.8357048965763,8.18809375243404,8.66867787117453,14.9098166955647,8.40468557312875,10.8460128620089,7.32155336347434,6.26325590308094,8.40222961404484,14.4289679669365,8.62503187939758,13.1054746059047,8.98804335739151,10.0796973639141,14.2427668969664,9.09407585741447,8.91534222285067,11.4184546901972,11.6212216008187,11.9108088143234,8.27592424848484,5.920269250872,7.90918715373934,9.83381164104602,9.06867588335157,5.88552518484843,13.005585556318,11.175241433358,7.89618643170882,8.93140704701903,9.79133595343817,8.85337991007951,7.20343982410761,7.25231059113699,11.6442754938784,17.0006112095542,10.9953325791269,9.46699110616751,7.66785893294459,8.65114414772688,7.00390105143009,11.5817376492144,12.2613597673382,7.43874670850413,12.3161563102119,5.85431938498316,16.52324740381,6.57694551014517,10.9200791383563
9.15149904360818,13.0566138174922,10.0827054652522,6.87217395956857,5.84002959764141,11.5180841659136,8.90016039442411,7.95177544696123,10.9646343784837,5.7417701072186,8.22268658530514,9.41918777627916,12.3193106464961,8.47983792986435,10.9273403989745,6.40225688764031,9.7769796537882,9.34918872585967,5.73371857242887,8.27977863585331,13.871502789495,9.51978861822116,7.64824786708201,8.89904209881687,8.26303537407057,9.72649731378191,12.8112243084237,10.4249755806401,8.60267600560576,8.85228681934026,8.70450177439536,10.0992397790215,7.20954924133824,6.56136748377752,9.5362744472177,10.3664461800543,9.84464428987061,1e+20,9.26345967069507,6.07731451950714,8.00892289069716,10.6568552844476,11.8698903035818,10.7547137375483,9.66140663327914,3.874112018491,5.76701547114734,10.4735635447059,3.53508085116814,6.8784103158096,7.61413898990129,9.22927900912252,11.6047455113937,10.3130228228556,9.08629859403042,8.35988143105836,10.4665299403328,11.1277321566068,7.64641232302509,11.0890999457898,9.40785411263871,9.04613692508424,8.96086509271786,7.51552725531916,4.74962873156038,12.1776988702817,10.3535319186393,6.9003379759929,4.70576753503549,5.82997285747971,8.20569369876432,11.9898579513721,10.0030488163206,10.046491105706,9.12312214495383,5.86853409947887,6.80092884747133,7.22853970676039,5.622447477389,9.74883423072911,6.73026702980674,9.28357037466995,7.06063263534112,6.16369026465744,8.89756730758874,7.22205875437749,15.4319433321249,2.83075110385514,5.8722940939977,7.91254896104104,10.7793180948556,11.2045433758842,5.62130061871667,10.3460206838636,4.20165700576948,7.4784261205849,8.09404187174514,11.9027195083574,14.2715173530327,2.98206411825505
3.73392607816947,12.5463034202771,5.50298594275288,4.96716819551638,11.1606213071472,10.0146225891193,5.21918178229028,5.59092802223831,11.0614425150456,8.70956331772163,8.82525277951726,5.50962180518527,12.340880782723,11.9938973975217,5.99501528693276,7.45629853694731,12.866548887784,13.2563735528288,7.45924363247135,4.09947370350054,11.4742141687809,10.7719198467587,11.4843537471019,10.7229994965763,9.9841829059248,11.8676561143163,11.6339654972175,6.18356605257024,10.7636063230727,11.1896162395529,13.0080562166887,13.0538521528978,10.6218263803468,6.47050267941511,11.1395737706991,11.6881345670574,10.7724438064197,9.26345967069507,1e+20,10.1180176483774,6.49059267472934,6.8274562831308,13.4709640751401,4.06021316312959,11.8344616037611,9.49601173855902,9.16291727906877,3.8662945219599,9.50633497151975,9.01495312529707,7.6678167165027,5.68484748887115,11.7884569070937,8.27123714628903,9.50428374016685,10.8117850340648,12.6104146609566,6.79706830357943,10.6423405189298,13.2061125134201,10.7053844839181,11.8008836134047,6.79263248974363,5.67021209157373,7.94036508371495,8.31139326398664,10.3761764192919,7.73822876745379,8.65652495639601,8.44562111044685,5.62124570168836,8.73672384099398,8.24056561636035,10.3547785782683,7.54685563228054,6.94231058305008,9.43900955375699,9.16545563579274,10.3931587357145,6.10985406675486,9.43476037239633,12.7830817327062,9.24132731076246,7.87705105579612,5.50341165153004,4.4933825762052,15.2724174806071,10.1955077553483,9.23833617445583,11.3987584327084,4.92625625828039,10.991061302357,8.51768618225138,7.26398977708194,8.04814564717149,5.68034172614522,10.8126577183812,9.90732730390133,13.449702792201,10.0253414233402
9.5926660171116,14.8188612830921,10.5682794215314,8.89526952389334,7.35509596809702,13.4751502279043,10.5530494249403,7.82740756388051,13.541267106528,6.79833322132953,8.9865047981545,10.6402816894851,14.052284867751,10.4964872554287,12.7289499822165,8.84196484797754,11.9543844542645,11.9337973865858,7.90222487906441,8.85808133661389,15.4664735269131,10.5096727420192,9.87363892290213,11.3863432414753,9.85352737510666,11.3509985834823,15.0958157632572,11.9225947679508,8.92916929509017,10.1644727748365,10.1165103078272,12.5747514985597,9.94530546081512,9.10089509736892,13.1583107716353,12.5522449094671,12.7739852452418,6.07731451950714,10.1180176483774,1e+20,9.412732633383,12.7107770193179,12.2250171242419,11.1414058648678,10.4582560983756,5.89587950460203,8.77076406520666,12.0636464475152,5.26252168635248,8.59479714803216,9.91858667740852,10.9377593109261,14.9033048426447,10.7633821739425,10.8503442206911,8.6519546644491,12.8246321080937,12.1459897878321,9.45375930020161,12.9487060836972,12.2033660339585,11.7590897387469,10.2140308010148,8.70295804886098,4.57883050136611,11.6141708524002,10.3120789299049,5.90499205352433,4.34783394425166,6.60081569989837,6.21362444860506,13.8977942502502,12.1522939201756,10.8870791937825,10.4998664280177,6.74668417762129,9.1297081125529,6.97687031420554,7.06268957273601,10.221349514379,6.59511072790795,10.7105241042349,6.76403813963966,8.43769413669695,9.87561663431009,6.87243266466317,14.7699751711885,4.77971174396741,6.20690146242869,10.0783463253872,11.7342142591752,13.2362589869605,5.93128472005871,10.6640625140972,7.58446558231212,6.68889678535505,11.5631736478657,12.521756110808,16.8316288082907,4.71539231361851
4.32976099935217,13.6135048794224,5.81260357514366,4.79104273887529,11.3674405201018,6.45381969462469,3.42868029649986,8.14852332142061,7.352078219636,5.89776428412617,10.7334906245818,3.48039508830909,8.55050646264813,7.46091701837608,5.18581961419597,7.47631882951976,8.60430703871499,8.8367834993729,4.0263185514054,7.02706649252816,8.87429375048678,6.45337010227078,6.75551393412673,10.3562118020485,4.56348168457797,9.35016874474578,9.67528191346603,4.17699814681387,7.30725339052561,6.40078279225326,8.7746120276417,9.1080500374039,7.37063397121704,7.73597365687921,9.15399255255747,9.99961630402344,6.5894997099079,8.00892289069716,6.49059267472934,9.412732633383,1e+20,8.03738848088022,8.62183445109981,8.26787851217389,8.66182378348266,7.51370438538862,5.55595285115202,7.65699791790401,8.79777832164809,8.76869182563077,5.27261346076544,9.1469360555532,10.6509008309768,4.15538671306401,12.1403913364247,6.27116980828946,11.0445084432029,4.66979400870234,5.63485873721387,8.79042428518428,12.3818748861396,9.59985306335113,10.7427147616296,6.27079160400996,7.01398756339688,9.56399388048711,5.98915790433497,4.93079282139872,8.58005196174538,8.64015769463089,7.03004599066879,7.71666030934139,5.49313552052911,5.92075986247811,6.227307961032,5.96130890529469,4.93118018668506,10.2406751636573,10.5489413200478,2.90175768482927,7.15863860300547,9.41396944664472,5.97254348992174,4.18530223102647,2.70800398131493,7.59601739273934,14.256557988556,9.30686226049173,8.30098620670089,8.74661484945611,4.90767112122245,6.31658701539828,9.00141230435091,8.05694241842075,6.00879339347568,8.13675441825242,7.31306920842637,13.2368605882294,9.45449808764045,8.53694280187992
7.19703664461953,15.0325110474944,4.91350824983863,7.26280688229348,13.1575394764074,11.2350184855706,6.91325692852698,7.95588588369144,10.9452677578773,9.79720347258538,12.2904981438111,8.01850623770745,13.6994959455289,13.3955425416925,5.2957685992243,6.60288781656188,14.3089076788826,13.9031948967605,9.11653477452427,6.53302425416529,9.78283480003516,12.2984725418478,12.4159696841429,12.2905120892256,11.0539882697209,13.1414700408252,8.01790034084685,7.70278878930744,12.7023978499906,12.5774994920287,14.7256586718876,14.3703106333786,10.8401781068898,5.45890656175684,8.37557007051775,14.3545800066529,8.73582640887376,10.6568552844476,6.8274562831308,12.7107770193179,8.03738848088022,1e+20,15.5873217027044,6.16107833166643,13.9281393796959,10.2051770051828,10.5115824297304,4.99385677347103,10.8637104825886,10.6774709552102,7.43178719558378,6.44709134696966,7.8344431078109,10.9274610244081,12.4820763642577,12.9684766698714,14.5693868068282,7.65925958287089,11.7351112671779,14.421344896977,13.1645579173456,12.9649998716732,8.32249713632614,5.38768262900899,10.0373165899504,13.2450774121086,13.0103159537023,10.0851196825694,10.6493642956437,9.97724946626741,9.27286592008307,6.62838618434619,6.69300803088462,11.9688870096936,11.010434855942,8.94916130114188,10.5081102564946,10.4747748763616,10.010147426142,8.47550762693031,11.4165425186821,14.7684394734189,11.8722156928919,10.2686574690884,7.55357781487799,8.38882942589057,19.3760082205264,11.3341707864748,9.86595173281472,12.2187264651179,6.83471227353547,12.5994763829203,9.5056230537022,12.0033280656277,8.49137802978978,9.33372738323495,11.3254875411705,13.0188226355105,11.7652636165237,11.939556923501
11.7297934035585,15.9600638623205,13.4033446689293,11.2692559474445,13.8643656433185,7.02498512033168,10.0047791814679,15.3109406986307,8.52688676680743,9.44636280080769,14.2967808516575,9.28649056676801,5.88883683430034,5.3899903223066,12.303756410652,13.8864842075025,5.9133215614446,7.11897233724126,8.08091575609705,14.7489379199008,12.2695457547444,4.63150020148986,7.2322589249304,11.4684521088709,6.21005601892324,7.62297131395537,15.0709157255563,10.0840018745405,5.66027600582901,5.11377076068215,5.53022663188569,6.41638829405747,8.66323679494438,14.67171382066,13.8177565089893,8.37735954892841,10.0161313668698,11.8698903035818,13.4709640751401,12.2250171242419,8.62183445109981,15.5873217027044,1e+20,15.9672588334904,5.4740740910643,11.2239068235277,7.84515836086092,14.7185059616576,11.9785724293348,11.1126003839026,11.1942865316963,16.5752998978167,16.413358138227,6.53375236490631,16.3928554949133,4.04838397070596,9.63509373130685,10.5112392968216,5.89155045372709,4.70012942539286,15.9346190965166,8.96912029182928,17.1951222638453,13.3303580189719,11.5036130964385,11.3244218032154,5.00772595068801,8.98241556141564,13.1606520502718,14.579866500625,12.7373849613746,14.8696504913917,11.0612503373605,6.8387517960886,9.86199289331166,10.9517651241769,8.00966405499788,16.3287634547888,15.3678608528195,9.1658425383521,8.67620158765924,6.16547674900666,6.82127628191048,7.40993058208767,9.78128613380883,13.5825348959636,9.95784045734564,12.7230208606699,12.6079466435678,8.56912764367613,11.2071556238832,5.32462247742422,14.7373046020497,10.5111128333781,11.2629238666514,14.0530901646461,8.29514363553104,18.2381835864409,10.869740086337,11.4285657145457
4.79766605439995,13.6178346057428,4.77961895852808,6.74353300602127,12.3584554618112,12.2154047743762,7.31053199675599,4.64467649715493,13.2146251298612,10.3428735795365,10.0348606158878,7.36285712532073,14.7652046758304,14.3522622594137,6.60422956953241,7.86300468921397,15.1986782248459,15.3168656223937,9.66181344241688,3.10692451413436,12.8398173737514,13.1326012738675,13.3419910478393,12.880439177529,11.9403613221632,14.3093562934116,11.9282954880367,7.82357027622774,12.9677343133627,13.461145156235,15.449313947595,15.4799686322275,12.5499003014605,6.21133586656306,11.9557445623837,14.5739182629841,11.9169072037256,10.7547137375483,4.06021316312959,11.1414058648678,8.26787851217389,6.16107833166643,15.9672588334904,1e+20,14.3604531340174,10.6402579597117,11.3588777687081,4.60221692104444,10.9373605536278,10.8043530273505,8.85214493127888,4.3546027449921,11.9903090614229,10.6026953574194,10.4781424006445,13.0798579087494,15.4358454958044,8.02876758395843,12.6803869933861,15.7288876970949,12.1294083127279,14.1482504104078,5.77176578315391,5.69427073551031,8.87316913573332,11.1128047394666,12.6417563486463,9.09824241507432,9.50418001505053,8.44514740003014,6.02905307584747,8.30402917186493,9.06436089705841,12.245668161053,9.55956308143673,8.37806642727893,11.0104305242518,8.48021647856118,10.5857555389388,7.66705302299338,11.400673847536,15.2192524542803,11.3034904823446,10.5288364448301,7.16362743442711,5.50097225693364,18.2522430135708,11.2692161900759,10.2368807320544,13.6001342830802,6.64582326759511,13.4978618918808,8.47866082417038,9.65143057567079,9.4581315777456,5.96915513714111,13.2569500571484,9.80188606095363,15.0341049150087,11.3251089186042
10.9213556281515,13.2553626536354,12.3302910769268,9.35297843464504,10.19193698813,7.26925996515701,9.31852139870235,13.5714279866645,8.98757851605475,7.81512815644516,11.2096150616982,8.71993593287948,5.85453340361924,4.80742265967732,11.6696838814119,11.79745273713,4.75292809433414,5.96649592954389,6.82826368607784,13.1700759236921,12.1663009569413,4.09843523395108,6.54312915552452,6.93222434016579,6.39527367832038,3.06150049217066,14.067164473765,9.64946315279004,2.69620561888213,5.09262212057111,6.15986362708507,4.70067022606324,5.99547697664036,12.4424758457169,12.7131945278791,5.37405417335358,9.18240814668424,9.66140663327914,11.8344616037611,10.4582560983756,8.66182378348266,13.9281393796959,5.4740740910643,14.3604531340174,1e+20,9.27868408727203,5.94948709251536,12.847967355571,9.00657296109731,6.9925732516038,10.0485922499763,14.3499044380578,14.8174815465934,7.295466858597,13.292299963449,4.52132851822815,5.79102972374654,10.6763343424883,5.43137432587167,4.64645441325099,13.0694371149451,4.74439614187909,14.4881106862445,11.9737988902527,9.3013569755131,10.0828291906356,6.04364730125674,8.05321711672914,11.1250048763696,12.6154395225383,11.4738369304167,14.0570418934017,10.5643694402265,6.98706000934314,8.5648002404013,9.79510974695204,7.27537846567721,14.2995638160772,12.4703779584958,9.45602981491264,6.14798402488675,3.23558715282438,5.22346288390351,6.54155142107184,9.61681049339833,11.313380398134,9.30198404051756,10.2639429673781,10.0436573329494,4.6189739547539,10.5689049451483,6.64414296653268,12.4466194592683,8.88229295317956,9.77852307930968,12.1132225800758,6.89031220696557,15.4729486933465,11.2861635189798,9.26531808792594
8.6203179224789,15.1081684491135,9.03499074975516,7.42285212066249,7.57871761356046,11.3926952084144,8.0313527962149,8.21196492976248,10.2145282844066,3.52821335977104,10.0932283152286,9.01607049651086,12.2599201180673,8.54593514662248,10.1521399958361,5.73891335378858,9.9436726058688,9.43575489115353,5.10916673588191,8.26807794120397,12.5994065806566,8.99615903624391,7.46921206254536,9.95337913912422,7.63938939064992,9.72042897371529,11.4994973552802,9.54233565681842,7.82518512814675,8.63503044731513,8.44080391075927,10.4017441189284,7.02091442692931,6.55981280285114,8.6177368496675,11.2383432102662,8.57655165930637,3.874112018491,9.49601173855902,5.89587950460203,7.51370438538862,10.2051770051828,11.2239068235277,10.6402579597117,9.27868408727203,1e+20,6.13152508988176,10.9073469354597,4.59555991125165,7.49755849216861,6.2142034119547,10.1373644013248,10.7878642663879,9.78755564898786,11.4772218621718,7.85637964312464,11.1351414004599,9.8743802721267,7.06360730569655,11.0347008397266,11.9537170546403,9.45281915978234,9.73900754187725,6.87909169742092,5.18796676739884,13.0434730243305,10.0246832042867,6.47774959731,5.7355768010399,6.9125847117298,8.04151644666269,11.6337763569692,9.52706970450865,9.9525233433347,9.92039583758961,4.48953854060027,6.12119783062075,7.3832449250446,5.83997341149018,8.85255608380724,6.45081216431332,9.59125515928368,6.86954219716557,6.37984370313361,7.90317179147889,7.97645328192334,15.8424472371042,3.66476333064965,4.22136316340073,7.84421791003302,10.2770411955777,10.6160656804513,6.47750259484879,11.3090314557382,3.41734149902934,8.0752148487479,7.62555341073539,13.7582365847518,13.2008973014907,4.29094754739325
8.35665799589963,12.0783685282146,9.44593958944335,5.27146214511474,8.37997607408073,7.27843826247756,6.95999764020777,10.0446277667671,7.97126226404459,5.15507923441632,9.55632964640719,6.93902444182907,7.59060552469607,3.6929338839459,8.91921311505312,7.55447151369866,4.96051971795266,4.61583246538488,3.51044073970327,9.64518962915441,10.7065127385139,4.7716278365139,3.20471885456948,7.05316090008419,3.5957127487954,5.90232059689604,10.8068277348617,7.58948846427417,4.97222430858547,4.13486962781355,6.42258567869879,5.24095826039992,2.92827278227942,8.49814006746036,9.14536258764554,6.99981217528675,6.47899808947106,5.76701547114734,9.16291727906877,8.77076406520666,5.55595285115202,10.5115824297304,7.84515836086092,11.3588777687081,5.94948709251536,6.13152508988176,1e+20,9.93918560236935,6.12089122079815,6.25048758777253,6.12154771447243,10.5749140759446,10.7394617669136,6.97325491766545,10.8592737118565,4.78164669710061,7.09969886853713,8.90437918406621,2.83652695276558,6.0666312444429,10.533131416186,5.43793181896485,11.3532644521732,8.67660609615579,6.05538048485391,10.6443195007293,6.18298848739233,5.64240444371241,7.55082223468412,8.37252537280462,9.37491870760515,10.0342250969169,8.06081249680012,5.45245458523118,6.55900722732946,7.25067138347832,3.38568500737913,10.4153248303566,8.76649775329351,7.64913450731347,4.50925503268728,5.50670258820859,4.4924201005715,2.92903529588701,7.18087101894552,8.6195441863815,13.391865456791,7.2244220972291,7.27591344861752,4.23119373851106,8.7441715732229,6.47674960294271,8.58286007850314,8.70529380528758,5.47279407564498,9.30151267473365,4.63760178312467,13.15027129394,10.02559094406,6.47198006778509
5.87965557663632,12.3481735459854,5.35354539262036,5.54016476432733,12.1411476434502,9.95600252362176,6.26609074174995,7.25945652325081,10.9924815820555,10.1099955144645,9.95294444201344,6.52463619776695,12.6641189116267,12.8554003876478,5.33631425649698,7.66015402027693,13.6428042847153,13.6978514133143,8.64554089522759,5.65888583006498,10.800467838792,11.4328661003788,12.3810905514656,10.7590792874332,10.9368435709369,12.2357181320083,10.3353341696944,6.74275436483036,11.9166506962663,11.9580929669926,14.2374614633207,13.5744021823902,10.7344466001965,6.20079139679344,10.3876123422971,12.1930742063332,10.3896932656285,10.4735635447059,3.8662945219599,12.0636464475152,7.65699791790401,4.99385677347103,14.7185059616576,4.60221692104444,12.847967355571,10.9073469354597,9.93918560236935,1e+20,10.4608313189813,9.45604057656807,8.18034692545264,5.17229136782247,10.3364398541989,9.61967991607886,10.0675154991431,12.1712155769412,12.8642879217426,7.35714276020326,11.5399858321174,13.6169085242553,11.015287748833,11.9617095618637,7.03362620836046,5.87002226539938,9.42552496686915,9.93311458105872,11.7590989065824,9.33913391214432,10.042759915468,9.73240599585758,7.77439133920049,7.69646597066415,7.80398812558689,11.1165114980661,8.97802606294053,8.72582255889777,10.5656030470125,10.6221206966133,10.7453443614233,7.54757697327082,10.4296429372013,13.6707452390418,10.8348736055274,9.2278337306419,6.97905276724992,6.15800305367368,16.8105305080139,11.3739404536468,10.3673702337527,11.7310239264864,5.0084302831382,11.8582585001752,9.43950808173053,8.68728100713325,9.08773947404149,7.80599334640126,11.2378016265878,10.3833879855567,12.6124425359114,11.6235335173728
9.64724313737164,12.9437068690772,10.0368274461517,6.88827408235142,5.56391233102339,11.8756628103262,9.50469818149286,8.19100558253766,11.4790255527774,5.77304317881595,8.21161308711981,9.88290047466543,12.4519444020806,8.55610729448631,11.3509895217093,6.26251296239909,9.89566852372166,9.33345026241951,6.32260862754067,8.72886150963077,13.8439351196351,9.15478774118097,7.96743471074225,8.36587304431498,8.51249741405187,8.78274965647857,12.7538053639509,10.8604544538035,7.74232648131137,8.85007127888138,9.12175544431244,10.1459127819079,6.50903554176226,7.13284327469738,10.2255580954258,10.3925636165779,10.1520748872387,3.53508085116814,9.50633497151975,5.26252168635248,8.79777832164809,10.8637104825886,11.9785724293348,10.9373605536278,9.00657296109731,4.59555991125165,6.12089122079815,10.4608313189813,1e+20,6.35756779284265,7.9633297061758,9.48359473825331,11.8726585940085,10.7616682091298,9.2070120435649,8.25506368837681,9.86798493191388,11.5538994498315,7.81596792913472,10.9883813408785,9.71542654345712,8.64249818830935,9.08029349953875,7.87129984068258,4.06670481359583,11.9959421100643,10.0917940616304,6.38286268002316,3.72308656302763,6.13112084491692,7.98115971992378,12.0400852245452,10.5138154500731,9.76092730031037,9.52966158033154,6.75395393280674,7.41986667026887,7.18148930355595,4.42894873786918,10.2412506097436,4.94404531166059,8.9070667415635,6.38714459638359,6.84614740349397,9.5102632737219,6.71496372147473,15.1655813207356,3.4661954725963,4.8364044078897,6.7846462646745,10.9976050564896,11.8368678566772,5.08093728845286,10.404318537781,5.46792690060355,7.34591145802643,8.67242349262894,11.8123197201764,14.524364882517,4.29625578831727
9.36587116421412,10.0438492077293,10.3499240209048,6.82933442765297,5.36741275768206,9.44875379063397,8.83225878777064,9.82688150006899,11.026191047298,7.62123066367256,6.43285426152494,8.4080955118781,9.41018307102999,8.27636157705255,10.517601200589,9.06855877538491,8.46172036250555,8.7870966162864,6.71682927251748,9.72875579992692,12.8810791513393,7.8354597998609,8.36722544028172,3.68588993995072,8.65961711609479,6.08546131531275,13.1701039063144,9.49849506126391,6.80912268515097,8.14742191150247,9.66152495862884,8.30285879733411,6.48628537608532,8.16153129296455,11.4168832819571,6.79839423190711,9.88373053805943,6.8784103158096,9.01495312529707,8.59479714803216,8.76869182563077,10.6774709552102,11.1126003839026,10.8043530273505,6.9925732516038,7.49755849216861,6.25048758777253,9.45604057656807,6.35756779284265,1e+20,9.22310648604832,9.83507976919962,12.7622874546335,9.22488306597441,8.17873687101116,8.28303034154516,7.13555326762875,10.8959084827034,7.97145085767675,9.34373784984001,8.88479703190022,5.35522173743313,9.21054557045427,9.17084289598976,6.60716770651756,9.3949161573606,9.55274758026172,7.80333154771212,8.26407529200314,9.057169180078,9.07382975813702,12.4098540827852,9.97288374169215,9.20714520623389,7.88230555071897,8.28272890819399,8.09184803688509,10.5078190060869,8.3060877187232,9.82987556026653,6.42287118829384,7.07557894687042,6.92475209679788,7.37861242700454,9.46553790678078,7.62869334620745,12.3123676684626,6.96204790815145,8.00076310199624,5.86066207393593,9.66693488090371,10.2550453436967,8.60256245486615,7.67709201849718,8.03691121501098,8.55614559614207,8.51471506112639,10.6043266265234,13.2307029254026,6.67716581680198
6.71496448091223,15.6835062624071,5.82229148477508,5.67595510823532,11.4427937861638,9.2776550554362,5.07890723765422,8.65808795153849,7.61330767330628,4.72608079720454,12.3467354354676,6.7928919167058,11.257065160268,8.84048219283888,5.96756562149795,4.29999423209416,10.1674504887189,9.5741231332412,4.81803612743558,7.41078203754046,8.40236433395939,8.31203776211203,7.61551247779089,10.7819734692552,6.44707276674687,10.230509215524,6.7321330023256,5.69301768543023,8.51766814584881,8.29104226012407,10.0309554835445,10.3697051565798,6.75687466453689,6.31342222274663,6.33361728133181,11.4015073239093,5.51615753620945,7.61413898990129,7.6678167165027,9.91858667740852,5.27261346076544,7.43178719558378,11.1942865316963,8.85214493127888,10.0485922499763,6.2142034119547,6.12154771447243,8.18034692545264,7.9633297061758,9.22310648604832,1e+20,9.30542583824366,6.9398536912234,8.29872771066678,13.2804895230678,8.58175002615853,11.151888468353,6.06283139007918,6.75474611504666,10.4306182952721,13.4371882409984,9.81219334664384,10.3346120250658,5.90023634040318,7.74557368329837,13.0076977666194,9.25341411763822,7.15278402007935,8.40828164157508,8.72951950699345,8.96854564372774,7.35811974961434,7.49238890784271,8.66428028990164,9.40370200827464,5.72478409625227,5.86231131698794,9.60711222619588,8.57231927941866,6.40296675983007,7.36259528901705,10.8899095707741,8.09244225536861,5.6128918514384,5.07518357880069,8.52686754649196,17.0727754157333,8.63830001148386,6.02548175738677,8.36352175550548,6.92757919370668,8.53220886026892,8.5929988061854,11.3049155251752,4.41806802752125,9.36936727812714,6.24147493627834,14.7927198964025,9.11188696449048,9.08825675475757
6.86442313532234,11.5756832049861,6.936691322311,6.27057916182282,10.3155249583977,12.6382452626444,8.67409081503252,4.57139214363562,13.721955996869,10.5108946691828,8.31121398338026,8.63781943579954,14.9966930814118,13.8373679583716,8.19128002869948,6.98340761596044,14.6551445484736,14.4482174958322,9.80101749026824,4.17071561998847,14.316621905534,13.4599197743718,12.7822837154216,11.4542561385889,12.0443834923813,13.7540160571396,12.4214988493255,9.63266913221329,13.0597886435519,13.4842158892896,15.2772609676378,14.813985488023,11.6265887805241,5.28167465039988,11.4926697885972,13.9332957131601,11.8357048965763,9.22927900912252,5.68484748887115,10.9377593109261,9.1469360555532,6.44709134696966,16.5752998978167,4.3546027449921,14.3499044380578,10.1373644013248,10.5749140759446,5.17229136782247,9.48359473825331,9.83507976919962,9.30542583824366,1e+20,11.5142338961793,11.970684801787,7.88234189009692,13.2810482062628,14.7187103312719,10.228835772392,12.5497857354023,15.5657833436531,9.3774870844031,13.1576417261336,4.10491490689489,6.28933532601947,8.02000209753519,12.0383003836491,13.2366373680424,9.33770384948302,8.20125627652301,6.74768894056633,7.14667060372212,8.40148937934126,9.08044845467522,12.3253622567313,9.24034695941441,9.1671926318867,10.6071792586376,7.30431619237243,8.68406046060882,9.5313635084641,11.0932189201947,14.5988782289381,11.2491005772767,10.384355936542,8.84022553118896,5.17413281107567,18.7993995952453,9.97571579478787,10.0531015483433,12.726461388179,8.74704102082153,14.1305753533264,6.86595374185214,9.96286635318022,8.90251625690656,5.70493294264631,12.8485995718117,7.70421874033756,15.750546623018,10.1687591899973
11.857248371386,18.770534461233,9.21373075347052,9.85477998931752,15.0284234322026,13.2706626453083,10.0673519974626,12.5822452691432,10.7720151326815,10.1207000954074,16.2970811781113,11.930703294518,15.2236237393728,13.4088478190334,9.08638713602547,7.2949009650261,14.4198870938125,13.2811250502478,10.2599509098685,11.2703834352182,9.1319039518851,12.9270482544658,12.0868629489054,13.824036316765,11.5422226237343,13.9473470411983,4.00530752086535,10.3168132842225,13.8337388829686,12.8340391819348,14.8559109190806,14.2581343319613,10.1897800798783,8.36682194217084,6.20160011558289,15.3324970423317,8.18809375243404,11.6047455113937,11.7884569070937,14.9033048426447,10.6509008309768,7.8344431078109,16.413358138227,11.9903090614229,14.8174815465934,10.7878642663879,10.7394617669136,10.3364398541989,11.8726585940085,12.7622874546335,6.9398536912234,11.5142338961793,1e+20,13.4632617021782,16.3544457714728,14.1585056319748,14.1536863968892,10.6907789753419,11.648175119763,14.3534049453464,16.3345429489092,13.0680149417376,12.9555914909476,9.30717491854146,12.4665910916127,17.6708293835135,14.8055601025886,12.7682033604559,12.7044924405784,12.4689368857223,14.0160708691581,8.73181071697329,10.7749680994172,13.4667396171546,14.4289220221414,11.0080616325348,11.2237151623197,13.0334406953055,10.677740169233,11.9798209569823,12.1336666145599,15.4006310523144,13.8021801115204,11.132610429969,10.7102317600261,12.8364866118341,22.186000256707,12.3861175853304,9.8129064833463,11.8905436069435,10.8347138168552,13.2377199414144,11.9167910568355,16.2809139971682,8.88431857719154,14.0126339950141,9.89127092896393,17.8980369775035,9.80549630434099,13.6272683059023
6.46554237083649,13.9961620471573,8.49524575847432,7.15476096900625,12.6437688401653,5.23844632560395,5.32591042057984,10.9546906940835,7.51859091989061,7.8880856766342,11.6152007173566,4.44935824965014,6.59301498030641,7.46262285320924,7.355936252146,10.8789552590553,8.05108210212655,9.14240059011823,5.6600646948095,9.84882809761761,9.28142117710582,5.26094221422597,7.7720191797208,10.4944438352231,5.51874891324239,8.61334344006927,11.9733338590327,5.13325136172536,6.80006781772756,5.87183355639828,8.26905043214487,8.49253915990869,8.5808647948684,10.7135915619381,11.6678799353065,8.72330019436387,8.66867787117453,10.3130228228556,8.27123714628903,10.7633821739425,4.15538671306401,10.9274610244081,6.53375236490631,10.6026953574194,7.295466858597,9.78755564898786,6.97325491766545,9.61967991607886,10.7616682091298,9.22488306597441,8.29872771066678,11.970684801787,13.4632617021782,1e+20,13.437098006902,5.73653138460135,10.1568008613919,5.9237217488508,6.25247117166403,7.52764982289667,13.6120704705307,9.3833169227657,13.1709966483616,9.12431556008442,9.0790686483973,7.85034806529166,4.66219971038776,6.62412619984193,11.0494607419393,11.5573959772455,8.67447833919586,10.7383929340499,7.90662024144629,5.93241677678606,6.76420410426599,7.90776362760693,6.98705124153637,13.1098448109912,13.309430711564,4.22920929714755,7.96335053151923,8.57854917190204,6.31563831757962,5.54107298761756,5.0654481169856,9.57452518213446,11.4556855317066,11.3602911095432,10.4143575926295,9.18012453589246,5.70149012178038,5.03566575603245,11.7976268518416,7.15844452638178,8.86265014479069,10.2738585432156,8.22354865321626,14.5530022666083,9.55970690849044,10.2415732529613
11.0147759502732,6.93261326838463,12.8730173259462,8.77491910882257,6.7860283699211,13.7898016618808,12.2804978180992,8.84992666678099,15.9724895449582,12.614857295232,3.34807396342707,11.3888572725866,14.4834702015196,13.2806616016296,13.3100423380392,11.4018799004192,13.5237411252977,13.7949759403976,11.2390438290029,9.60752903105791,18.0264223157136,13.6542339736572,13.0001742554666,9.03265033456199,13.342900139803,12.4333245505646,17.5551802012918,13.1659874246819,12.7931446874445,13.5330493250167,14.4908041320769,13.5655990814486,11.9950581143735,9.64219927913852,15.0971049508127,11.6633788980362,14.9098166955647,9.08629859403042,9.50428374016685,10.8503442206911,12.1403913364247,12.4820763642577,16.3928554949133,10.4781424006445,13.292299963449,11.4772218621718,10.8592737118565,10.0675154991431,9.2070120435649,8.17873687101116,13.2804895230678,7.88234189009692,16.3544457714728,13.437098006902,1e+20,13.2432454490924,12.6532812314138,14.5168918082128,13.2148112296755,14.9644532252858,3.90680046830533,11.6477421540408,7.11023333890405,11.1513832248578,8.45780118152943,10.4634781754661,13.637622779291,10.8558913074854,8.91638724200487,8.42710262891722,9.67513888499058,14.0112938299405,12.8030261530573,13.0190711684355,9.02684488891878,11.5682455328005,12.0233790644127,9.66288380121905,10.1108542086436,12.9840035311535,11.2416310513643,12.583555275144,11.1248191957128,11.3421744889709,12.6797823015033,7.30695623945905,15.8194101932128,9.66512311985258,12.1579009367106,12.0594150249153,12.6786645476896,15.1291149175391,8.67699221347331,8.42373860152993,11.2356137671607,7.40828635745699,13.8990291111877,4.29967808787381,18.7161199599375,8.98656600691064
9.18652531972647,13.719252573334,10.7898166752957,8.13764232106731,10.4641380972441,7.02653232742198,8.05794829502877,11.7823979268667,8.444340934489,6.27416554933396,11.1388133907285,7.39018442332803,6.66221987698922,3.54408396592904,10.4757556175029,10.5428037406116,5.0367344556338,5.659227982382,5.23657040540112,11.5422256585213,11.6732156042688,3.42971553008268,4.6888325939723,9.27527216543663,3.86480399186075,6.25877708158327,13.2795444211356,8.59404598614383,3.26182763401693,3.36077653879237,4.92405998110153,5.78129263813342,5.98093938348548,11.4314517439819,11.9045821673578,7.69558192426508,8.40468557312875,8.35988143105836,10.8117850340648,8.6519546644491,6.27116980828946,12.9684766698714,4.04838397070596,13.0798579087494,4.52132851822815,7.85637964312464,4.78164669710061,12.1712155769412,8.25506368837681,8.28303034154516,8.58175002615853,13.2810482062628,14.1585056319748,5.73653138460135,13.2432454490924,1e+20,8.68540312095348,9.17871052185099,3.35119499199703,5.20255133528424,13.1701388570663,7.39382118097662,13.7937329859907,10.398002847088,7.61543644852454,9.9632895246304,3.7272728529411,5.29936455670276,9.2148557602697,10.7141878972259,9.50943000911792,12.4530077678408,9.08669221823228,4.97023293837256,7.47054308273113,8.14866119511658,5.05839680709903,12.5014357670801,11.5526017838399,7.36180904587309,5.16835884098276,4.78094539573167,3.11011177708119,4.67589626318512,7.67811145401168,10.1236145975327,10.8410586167913,9.10780737605544,9.25984795804767,6.19558954912205,9.54867896132981,5.91664918960571,10.8257540620607,8.63357729819252,8.16297690663822,10.4967243650458,6.93938553255835,15.0951396335048,11.1122493745407,7.85088610245231
13.0462028682609,12.7474858470316,14.0296714309505,9.81684661622509,10.4512945599355,9.15548399083769,11.0893332836391,15.0051052402228,10.1251536334825,10.1874941824816,11.6051016611445,10.9600292178831,7.96037137379028,7.21048573451341,12.9632844928933,12.4655659634741,6.80108767259325,7.44411022254625,8.51046752127885,14.4126913916395,12.7853796480176,6.95752003585585,8.6069141684051,5.83532905936859,9.15733741766715,4.70272184147004,14.2393370445047,11.1513993694619,7.33390190141687,7.54080637917411,8.6697998243874,5.8728338897875,6.61073192886608,12.7676014012005,12.6676318335502,4.24587539547396,10.8460128620089,10.4665299403328,12.6104146609566,12.8246321080937,11.0445084432029,14.5693868068282,9.63509373130685,15.4358454958044,5.79102972374654,11.1351414004599,7.09969886853713,12.8642879217426,9.86798493191388,7.13555326762875,11.151888468353,14.7187103312719,14.1536863968892,10.1568008613919,12.6532812314138,8.68540312095348,1e+20,12.843354881428,8.03527683139583,6.51744669234355,11.9179688305214,3.84453684612602,14.7592556760774,13.2719260804071,11.0966744202197,11.2110799734591,9.65725828388385,11.1551045826116,12.4537366445688,13.7838403376446,13.8454623295553,14.9455159488529,12.8817187832493,9.64090428141285,10.3817078498134,11.6586438242865,9.85138518111628,15.5255816411235,12.8937452713724,12.2379576303901,7.99056079921582,5.88208104242881,8.90009566586029,8.10266988222618,11.9853316626566,12.4206812362464,11.2868048388666,11.3360203725088,11.19559364469,5.1622726122337,11.8792092747624,8.94768995694082,13.496407038483,10.2389131861859,10.7828676772393,13.7688196262819,7.13611497648927,15.5012278278964,11.6725201717412,10.9646965845834
4.89077969162617,15.8324056253923,5.069832257695,7.30689940718389,14.2193786155825,6.9872918807547,2.97512019173856,9.83730368151356,6.97671010538828,8.05037740979459,13.2315795828174,3.93646008190415,10.0770073398252,10.6145900535334,3.21683826378831,8.70825951222066,11.5378816063156,11.7984315899088,6.71153975073967,8.00367646329398,7.84558181075387,8.67465073240618,10.2942260799478,12.3291021764459,7.91881609352859,11.3379007014865,9.13870189934038,2.72616680285134,9.52076215811686,9.45961518984061,11.2696246118414,11.7465003626806,9.92483696405554,8.78996630771385,9.23666111987067,11.8156675317272,7.32155336347434,11.1277321566068,6.79706830357943,12.1459897878321,4.66979400870234,7.65925958287089,10.5112392968216,8.02876758395843,10.6763343424883,9.8743802721267,8.90437918406621,7.35714276020326,11.5538994498315,10.8959084827034,6.06283139007918,10.228835772392,10.6907789753419,5.9237217488508,14.5168918082128,9.17871052185099,12.843354881428,1e+20,8.8135734266524,10.9817997073075,14.8296157687599,11.6381673120667,11.5034098990378,6.65565284564051,10.2837215462551,11.0051904885263,8.77064882943951,8.24589006529481,11.5569694594022,11.787917127631,8.64361783004386,8.27730558570432,6.05748658002914,9.00522672844888,9.0498905396829,7.07212883330178,8.16944980587231,12.6295235528537,12.8925758892281,3.02492180502572,9.95155923623711,12.1810361627889,9.24657347976203,7.47342539697957,2.80651694662314,9.37713431199751,15.3931667722734,12.1270819640806,10.2746783480777,11.1264820928366,3.3638207098128,7.52707090706506,11.7707270342409,9.64742522940787,8.33343662740973,10.1883515817504,8.86063179745527,15.2236348360168,8.85445202183093,11.8650153388565
9.09226224633441,13.8788476203311,10.0600817262513,7.01177454367683,10.3427586317062,7.04070577668905,7.54126059454832,11.5152059854502,7.56478434546218,5.51715484050876,11.5817264956851,7.39933324298087,6.82868271458542,2.61601533050061,9.48446595906543,9.10635012240544,4.16816062181901,3.94538580045731,4.33894391611469,11.0417587718523,10.1557843671815,3.36862741959871,2.18204686963082,8.86103729155853,1.86200471341688,6.1952737020295,10.9596192777814,7.76635184762584,4.23180402547171,2.44800271297101,5.47002517766369,4.84664917592102,3.87071261928821,10.2397148269069,9.91560263165821,7.92723109227984,6.26325590308094,7.64641232302509,10.6423405189298,9.45375930020161,5.63485873721387,11.7351112671779,5.89155045372709,12.6803869933861,5.43137432587167,7.06360730569655,2.83652695276558,11.5399858321174,7.81596792913472,7.97145085767675,6.75474611504666,12.5497857354023,11.648175119763,6.25247117166403,13.2148112296755,3.35119499199703,8.03527683139583,8.8135734266524,1e+20,4.8489430258907,12.8789465581218,6.49600341302841,13.4143865895088,9.82117044010861,7.34302030883562,11.3984749271575,4.81496003846195,5.82002544604932,9.04580839303902,9.98396876617477,10.2835398161655,10.674745810565,8.55001496231706,4.45417078954633,7.56444276800624,8.04190814979089,3.45956413310162,11.8455877936163,10.4580063927339,7.54285574965561,5.00428582520824,5.31602073610341,4.38513991446676,3.88574875307865,7.40297598460751,10.3204362675938,13.310801582282,8.72526706526377,8.1591115921401,4.99660525255104,9.25359297504832,5.3508962737342,10.1692844987601,9.79024698792236,6.79251994366563,10.8166269261284,5.14170122481824,15.1961772827385,9.15063789052204,7.81857532724143
12.1320548909011,13.9844295782648,13.2558921648952,9.97985383772698,12.624129381722,6.1812630473759,10.0367673506781,15.2335074847429,7.91297665176705,9.48853708711807,13.3786851135117,9.37664272028828,3.96174095775964,3.48137495206159,11.7631267828279,12.8965411939672,3.14290975625729,4.05434059581886,7.66397311415547,14.600872118512,11.0829657485163,3.35701818268509,5.65428896903501,8.8600497252397,5.56382939742688,4.97259993952925,13.4037292911145,9.7936215202157,5.39532964326888,3.67481191955333,6.00041048925549,2.78996392427242,5.94156650585514,13.590619295389,12.319429071367,6.24746479488316,8.40222961404484,11.0890999457898,13.2061125134201,12.9487060836972,8.79042428518428,14.421344896977,4.70012942539286,15.7288876970949,4.64645441325099,11.0347008397266,6.0666312444429,13.6169085242553,10.9883813408785,9.34373784984001,10.4306182952721,15.5657833436531,14.3534049453464,7.52764982289667,14.9644532252858,5.20255133528424,6.51744669234355,10.9817997073075,4.8489430258907,1e+20,14.0873156407558,5.79224261804399,16.3309798384285,13.1299541148023,11.072265282592,11.5486089765071,5.92754407196287,9.44590453477519,12.8015308842612,13.9917353089757,13.5294700001069,13.5028670290456,10.5583213274139,5.91043381434033,9.22804977917967,11.4983518906957,7.41060719572162,16.0001965947127,14.0939943639218,10.105851640681,7.80413497662216,4.24140019804868,7.15608726483066,6.95524079600579,10.3557470128051,13.325495116067,11.3362890508198,12.1616320222024,12.0318950607139,5.78653885769677,11.0730620225862,5.02931337407154,14.0031571617849,10.4256757292616,10.663374630593,14.1074650498763,6.55905103291949,17.1496478117854,8.99082022865697,11.1702017590051
12.0223515253607,7.18957913187745,13.9311803940402,9.32001597845507,7.8717899526736,13.2085056910414,12.5932584053628,10.7041484830851,15.0191649982945,13.2119396873038,6.01017189730122,11.7352297733436,13.7524775804791,12.5826426498014,13.5997096107839,11.9401098322049,12.6676686254278,12.8677985745644,11.2534314761429,11.0471824980404,17.9119821839444,13.3900329146637,12.5238411536782,8.97737855162105,13.0331647514688,12.0206056413036,17.5962008201307,13.3607942859154,12.7797337869628,13.1911996705565,13.454376118494,12.5690498115153,11.570891049818,10.5249053290014,14.2306741396976,11.0354945576418,14.4289679669365,9.40785411263871,10.7053844839181,12.2033660339585,12.3818748861396,13.1645579173456,15.9346190965166,12.1294083127279,13.0694371149451,11.9537170546403,10.533131416186,11.015287748833,9.71542654345712,8.88479703190022,13.4371882409984,9.3774870844031,16.3345429489092,13.6120704705307,3.90680046830533,13.1701388570663,11.9179688305214,14.8296157687599,12.8789465581218,14.0873156407558,1e+20,11.0358153697412,9.25587218795758,11.9411421783849,9.51846773585325,11.4155055225176,13.4408471792163,11.71458974523,10.082902624123,9.82210826168831,11.4574167116589,14.0750118725258,12.812208733281,12.6347814085395,9.23678345697778,12.2360036425309,11.8061571779988,11.2018997293793,11.0699395014658,13.4487243605658,11.7003645736467,12.1008167259678,11.46496826906,11.1210370294449,13.1341895413929,9.23777696711048,15.9139639090608,10.4923954222537,12.9153489005179,11.6802254267907,13.2202548509232,14.4284476137731,10.0712487554416,9.2332575781652,11.2608841496314,9.45749090445189,13.1330389598579,7.16575070049408,17.947342593544,9.69028005784544
11.6330770658222,11.4232455413883,12.6056205895078,8.67543932405435,8.83336652368219,7.87622951129174,9.84292505567135,13.5327666089758,9.46230248307587,8.68722038098987,10.301599252522,9.4527038184194,6.81621725792628,5.74317654717057,11.5560292456376,10.9928892233605,5.22451654663772,5.54119195921623,7.36899277445554,13.0675144383078,12.3947334587722,6.09547250453781,6.82605604095726,3.79094728591744,7.55121825110609,3.03196543293837,13.1738985044618,10.0799591569053,5.62929827979265,6.51255718030527,8.10832629051589,4.36986946197597,4.73129199391284,11.3190152488978,11.5204551265718,4.25016941525879,8.62503187939758,9.04613692508424,11.8008836134047,11.7590897387469,9.59985306335113,12.9649998716732,8.96912029182928,14.1482504104078,4.74439614187909,9.45281915978234,5.43793181896485,11.9617095618637,8.64249818830935,5.35522173743313,9.81219334664384,13.1576417261336,13.0680149417376,9.3833169227657,11.6477421540408,7.39382118097662,3.84453684612602,11.6381673120667,6.49600341302841,5.79224261804399,11.0358153697412,1e+20,13.2919210267455,11.9428391249604,9.55025147387104,11.3346779288072,8.68566868395623,9.55411621321643,11.1619160740124,12.1688130265516,12.591114824163,13.2518422965185,10.5600500043308,8.18841687293024,8.71353599380343,10.6042701807593,7.63657632452576,14.010201327209,11.3198665553748,10.9153275650434,7.12105692287465,4.38657607609019,7.42163456450201,7.1912724980934,10.656423863783,11.3585517977181,11.843905411856,9.92072266187933,10.1823676143764,3.41836368057002,11.0702920591439,7.95584355793482,12.0214458526329,9.50701194021531,9.48435191475656,12.3481180129867,6.21929881292777,14.2524217793069,11.0101871848738,9.36812893982698
8.27105661174999,11.7888703382284,8.66833261530332,7.83601283743542,9.04306244292752,13.9277551218873,9.92659331829087,5.10733685766421,14.8267355737631,10.727213975959,7.29726395448774,9.91063790234085,15.8313614628135,14.5453860841923,10.1380704190746,7.78997317615172,15.3264312606876,15.1894002641518,10.3950416255566,5.44487424679259,15.7609380405252,14.1507798738895,13.6807246665615,11.2292089638264,13.28217641115,13.9435595239402,14.1797381668682,10.9428596095135,13.2601247291741,14.3007475243337,15.5155897473008,15.4497349758282,12.2515430146804,5.6165785408801,12.4303748950346,14.0737724840206,13.1054746059047,8.96086509271786,6.79263248974363,10.2140308010148,10.7427147616296,8.32249713632614,17.1951222638453,5.77176578315391,14.4881106862445,9.73900754187725,11.3532644521732,7.03362620836046,9.08029349953875,9.21054557045427,10.3346120250658,4.10491490689489,12.9555914909476,13.1709966483616,7.11023333890405,13.7937329859907,14.7592556760774,11.5034098990378,13.4143865895088,16.3309798384285,9.25587218795758,13.2919210267455,1e+20,7.16576346779541,8.17611292843822,12.3072975530959,14.3947389399196,10.157620763292,8.11345086615716,7.28960160858187,7.3578793336309,11.2698092668836,10.8090984630304,13.7791172979576,10.4466535434212,8.89415450770206,11.6447675925659,7.17529151739254,8.19131284068593,10.8848135702047,11.3714323559509,14.7090272300407,11.7324252677775,11.3403550534438,10.1434608779476,5.3096468808062,18.3528641808667,9.03946797729153,9.99521589091523,12.9596103820524,10.2618492414429,15.2379802348313,6.98052014594545,10.2238423433215,9.3788013355707,5.45476267876062,13.5271400370364,7.40868107325993,17.3193287272766,9.48883476464869
5.49199653871757,14.7863964667657,4.21214195976326,6.00962416046088,10.8111293275535,10.4637133004682,5.52153343760784,5.75922927056789,9.5671084535948,6.99653160147061,10.5139275047785,6.74539756178368,13.088434260706,11.6485811272271,5.91485300313666,4.83218907544459,12.9630978358962,12.7025093638281,6.33641042058972,4.39479943308869,10.6908877851645,10.5991571976935,10.7913630112622,11.5744684029828,9.48631579398259,12.0506214042142,9.61975679262139,7.0429675731683,10.5832615328831,10.831093399234,11.7213572122523,13.185316020593,9.66141023216887,3.50592099420307,7.56052083614568,12.8621621202445,8.98804335739151,7.51552725531916,5.67021209157373,8.70295804886098,6.27079160400996,5.38768262900899,13.3303580189719,5.69427073551031,11.9737988902527,6.87909169742092,8.67660609615579,5.87002226539938,7.87129984068258,9.17084289598976,5.90023634040318,6.28933532601947,9.30717491854146,9.12431556008442,11.1513832248578,10.398002847088,13.2719260804071,6.65565284564051,9.82117044010861,13.1299541148023,11.9411421783849,11.9428391249604,7.16576346779541,1e+20,7.14889471303083,11.738847253802,11.1282014974252,7.4188688971318,7.49848615892265,7.74136221264988,5.86020951651153,8.65534561907154,7.18377242037391,10.8837956987278,9.98159805117932,4.50357713338145,8.62176083978782,7.95230259681784,7.97938157960674,6.46332358398669,8.93780887220983,12.9113033781374,9.26548035405877,7.78709890127936,5.49018851532106,5.83327428980127,17.0204862059371,7.9521925729704,7.02122111717104,10.9123222167851,6.15969089912588,11.4582912332749,7.03586601927031,10.2765524658128,5.28214743624465,6.80248994055042,9.73289142743066,12.3529885963527,12.4301793510262,8.59874863012743
7.31876906535506,11.8009851785679,8.43842930157145,5.27610300101225,6.23070437119714,11.1374178019625,8.41916984667604,5.84296998041663,11.958640147719,5.90496670946147,6.97736050021073,8.12617440157345,11.7793362939223,8.5143759509165,10.0366498685739,6.67691665092773,9.6585362697227,9.48180395765418,5.99140806316464,6.64675747057564,13.4410046349363,8.74755981592465,7.34690298732797,9.10936990388086,7.42298799334256,9.46738659137701,12.7337525664818,9.41139097643401,7.62637269431917,8.29844877465896,9.66204692661852,10.2699849586098,7.30029475807225,6.75785444186961,11.2110258319948,10.8604793756437,10.0796973639141,4.74962873156038,7.94036508371495,4.57883050136611,7.01398756339688,10.0373165899504,11.5036130964385,8.87316913573332,9.3013569755131,5.18796676739884,6.05538048485391,9.42552496686915,4.06670481359583,6.60716770651756,7.74557368329837,8.02000209753519,12.4665910916127,9.0790686483973,8.45780118152943,7.61543644852454,11.0966744202197,10.2837215462551,7.34302030883562,11.072265282592,9.51846773585325,9.55025147387104,8.17611292843822,7.14889471303083,1e+20,10.4068956917703,8.49503898612604,3.8937457946442,3.08006522462062,3.8742004263007,5.54482323343903,10.3764222049525,9.49369270464974,8.0868761365779,7.23979976532737,6.41706704104172,6.32950295900488,5.3683073207467,5.67295631292707,8.38330056052785,5.0554660395765,9.16406550462096,5.17923838403945,6.48778007518493,7.97114518459907,5.04109938448235,15.0551204755737,4.7869975974684,5.60449357589372,7.9911126144204,9.61770642204505,11.119160115784,3.73350335458833,8.67629341542885,5.86336312515446,4.84738654795571,9.79012194462954,9.97665622101978,14.4436826370581,4.04535979913017
9.12608685012024,10.8237679688559,11.7565153320851,9.12076627909849,12.1461382960987,9.69663260184326,9.75606565781517,11.4118874824227,13.0291906301847,12.0162770831361,8.78759956133447,8.26437232694862,9.94086667592495,11.4574725108431,11.4376011076639,13.7443548028347,11.6483315804489,13.0728902443444,9.98194807965245,11.0730339701519,14.1280591965674,9.79344783390385,12.2556220403097,10.2877307130478,11.052697821587,10.4685663831664,16.8759781805788,9.93686729892862,10.1344222854304,10.4683187944546,12.2671024746211,11.8059487500816,12.0904837166046,12.6015984675973,16.1559181906665,9.48742768061199,14.2427668969664,12.1776988702817,8.31139326398664,11.6141708524002,9.56399388048711,13.2450774121086,11.3244218032154,11.1128047394666,10.0828291906356,13.0434730243305,10.6443195007293,9.93311458105872,11.9959421100643,9.3949161573606,13.0076977666194,12.0383003836491,17.6708293835135,7.85034806529166,10.4634781754661,9.9632895246304,11.2110799734591,11.0051904885263,11.3984749271575,11.5486089765071,11.4155055225176,11.3346779288072,12.3072975530959,11.738847253802,10.4068956917703,1e+20,9.0166100483396,9.37541061982695,11.8606268523197,12.6016955968104,8.99349520173914,14.2336906243668,11.8510293149353,9.9899161949838,7.65748160266455,11.1204350792242,11.7583275842173,14.0368487965362,14.6367101965948,9.29293475551667,10.1957308454875,10.7383796507938,9.05695063180339,9.66740665223287,9.94324605484757,8.79837430962994,9.1678583217654,12.8200536458459,13.2480540957366,11.7270832114828,8.87048121410509,10.9957700609061,12.6491250688341,4.31128872826428,12.5622717946299,9.54092855084296,12.9517217521716,11.1089083092596,15.5143034646129,11.6356229816392
8.59145146898497,13.3655870422714,10.5483653083371,7.8840701069473,12.1077611179226,6.5920393107727,8.03312730631019,11.9356904998351,9.08245555533404,8.14395274752526,11.7039419791494,6.77481293058612,6.26569561844081,5.16858001801063,9.91975921754094,11.5289901494125,5.84245349795309,6.87571804393807,6.67170758560107,11.4783643710664,11.2704696825788,4.20680925681676,5.780049094861,10.2554071626938,4.07887207131173,7.46597462480574,13.3140818607245,7.83181519608964,4.97338401042779,4.33631588285841,7.12027565389711,6.63342638816901,7.42031165103674,12.3145689732872,13.0386714089215,8.49362039953366,9.09407585741447,10.3535319186393,10.3761764192919,10.3120789299049,5.98915790433497,13.0103159537023,5.00772595068801,12.6417563486463,6.04364730125674,10.0246832042867,6.18298848739233,11.7590989065824,10.0917940616304,9.55274758026172,9.25341411763822,13.2366373680424,14.8055601025886,4.66219971038776,13.637622779291,3.7272728529411,9.65725828388385,8.77064882943951,4.81496003846195,5.92754407196287,13.4408471792163,8.68566868395623,14.3947389399196,11.1282014974252,8.49503898612604,9.0166100483396,1e+20,5.69593500663825,10.3993159547696,11.3053647515177,9.74364870830684,11.2800732685151,9.2600242624135,2.95197906800337,6.27798996375578,9.68066276940785,6.01983071546747,13.1421118137522,13.0658887487033,6.77349111346874,6.45057320852826,6.50282935074164,4.29989478454145,5.65378307555921,7.49848420445823,10.3833659059471,11.3784173641077,11.3377877821744,10.6293694736682,7.78745936826312,8.83331634694052,5.51749405934462,11.6676150761882,7.97473592851268,9.72118728069394,10.7540438097248,8.59583685171134,14.7958084719375,10.8766676584427,9.92176626269974
6.0629754125051,12.6548935202267,7.47160551856439,5.40906256124458,9.01592963033154,9.08213279878383,6.93451351436217,7.15922178584169,10.4682925127596,5.27495310877186,8.88050398533722,6.27616462919908,9.96393057917684,7.19801080276415,8.72499873956786,7.6574249395133,8.60284065947117,8.66451968733972,5.29170694739683,7.37796220834538,11.903966403263,6.80326851534786,6.43607847744053,9.82300711118889,5.36636800711673,8.81532986210374,12.0647339523072,7.78938256671802,6.01582659418756,6.55958344134253,8.77771616290921,9.34598938344282,7.06434784072989,8.4090276947391,11.5523926736019,10.3493468679619,8.91534222285067,6.9003379759929,7.73822876745379,5.90499205352433,4.93079282139872,10.0851196825694,8.98241556141564,9.09824241507432,8.05321711672914,6.47774959731,5.64240444371241,9.33913391214432,6.38286268002316,7.80333154771212,7.15278402007935,9.33770384948302,12.7682033604559,6.62412619984193,10.8558913074854,5.29936455670276,11.1551045826116,8.24589006529481,5.82002544604932,9.44590453477519,11.71458974523,9.55411621321643,10.157620763292,7.4188688971318,3.8937457946442,9.37541061982695,5.69593500663825,1e+20,5.49309589037822,6.50209294800378,5.27491525713795,9.59999201469174,7.95086310126516,5.79385303448709,6.23461534252691,6.54367541858136,5.17893731014587,8.12326440602963,8.50663698921486,5.98179984125377,4.51324899181955,8.36780405559992,3.25497321776624,5.30660904521693,6.0441274315811,6.08198527876968,13.686170453305,7.31654973850551,6.98524708455014,7.88984905290693,8.03294585075683,8.98792946849763,6.66045179437858,7.87177082392463,6.7611951099794,6.12571915920079,9.13967112326573,11.8023971878277,12.8091889306596,6.36206496112285
8.6378807401742,13.036612045508,9.30750993829865,6.63787963774937,6.78703152205172,12.9326052317989,9.70668959387811,5.85044238546305,13.0775913413594,6.7034906901032,7.9356191298463,9.85831582444373,13.8704249623208,10.074153285516,11.2758629606079,6.36519170253185,11.5661093914199,11.0796579224571,7.38116930311072,7.07604207912118,14.7468711595358,10.5762492006289,9.03063398853875,10.5435761637314,9.18246611998968,11.2049993666999,13.3902046800829,11.0451793379893,9.3887079486074,10.0353861988129,10.9245117557335,12.0628801397279,8.6208820530637,7.08857646796779,11.6528646660955,12.3645748526963,11.4184546901972,4.70576753503549,8.65652495639601,4.34783394425166,8.58005196174538,10.6493642956437,13.1606520502718,9.50418001505053,11.1250048763696,5.7355768010399,7.55082223468412,10.042759915468,3.72308656302763,8.26407529200314,8.40828164157508,8.20125627652301,12.7044924405784,11.0494607419393,8.91638724200487,9.2148557602697,12.4537366445688,11.5569694594022,9.04580839303902,12.8015308842612,10.082902624123,11.1619160740124,8.11345086615716,7.49848615892265,3.08006522462062,11.8606268523197,10.3993159547696,5.49309589037822,1e+20,3.584026368296,6.13754915429988,11.2392798812455,10.6924311263988,10.0200633706511,9.15618473853489,7.02751031152593,7.97060305487254,4.68221469613976,4.70481900925627,9.86476050236936,6.20414447343524,10.8713573224381,6.99299225535662,7.65911463559309,9.23633849601939,5.26779469583688,16.4226588367563,4.55432230003244,5.81958267599096,9.3553452212781,10.9432930624338,12.9264302224229,2.9750358552673,10.3164526318639,6.29106999123411,5.16606970570091,10.7806759697656,10.5539243714666,15.9251957396228,4.86696491361579
8.18463508374914,12.580035944145,9.00744908372615,6.43276282654296,7.46856274262508,13.5160036955863,9.92969898561337,4.4922903284951,14.1753824052223,8.00712448732826,7.82924690289971,9.91818587452993,14.5895393963095,11.2204935807343,10.9479437113521,6.58953945229767,12.3640038991183,11.9273622895719,8.33246586816992,6.01150934319154,15.1600144706778,11.8659256235862,9.61360186426929,11.2790225938976,9.79884096617085,12.5631573278887,13.3294635949207,11.0301175098272,10.9096127818533,11.1312478548489,12.6354161567857,12.9435394704268,9.72472482488125,6.67139823752951,12.0715806579987,13.4807802620142,11.6212216008187,5.82997285747971,8.44562111044685,6.60081569989837,8.64015769463089,9.97724946626741,14.579866500625,8.44514740003014,12.6154395225383,6.9125847117298,8.37252537280462,9.73240599585758,6.13112084491692,9.057169180078,8.72951950699345,6.74768894056633,12.4689368857223,11.5573959772455,8.42710262891722,10.7141878972259,13.7838403376446,11.787917127631,9.98396876617477,13.9917353089757,9.82210826168831,12.1688130265516,7.28960160858187,7.74136221264988,3.8742004263007,12.6016955968104,11.3053647515177,6.50209294800378,3.584026368296,1e+20,6.57598608546209,10.105880414359,10.6004123387191,10.5076415058296,8.78261041327507,8.07500634913069,8.24493721134816,3.16928051938071,5.50220677959639,10.0820850153074,8.18909931865803,12.2271070612665,8.38453700759422,8.62163372009088,9.41849466613535,5.57407910146728,18.1274323223667,6.10978426966884,7.07044144518756,10.7630052649536,11.1123719960071,13.5239221765349,2.61540814315959,10.7162045574629,6.93961242793998,4.82538671701153,11.8228975811188,9.31995638965583,16.3324760766538,5.90869853023895
4.96460176434229,13.1238862432862,6.63290344927484,6.58780219421632,9.7192295650013,11.3763024575604,7.39303254262939,4.24684401046323,12.5762608341046,7.84092029220946,8.01093935751375,7.01861535452658,13.2132438123054,11.696769827246,8.82172143051948,8.09505626362689,12.9086307448826,13.1910106942305,7.60525275735097,4.69387430500901,13.7898285726568,10.7126017721856,11.0808460582664,11.6640465112293,9.8457243721838,12.134279027094,13.7455077156595,8.7109597330811,9.89226060734888,10.8947211376506,12.118745295741,13.4445690692207,10.9001613162734,7.36079333502621,12.6876735624134,12.7048490653089,11.9108088143234,8.20569369876432,5.62124570168836,6.21362444860506,7.03004599066879,9.27286592008307,12.7373849613746,6.02905307584747,11.4738369304167,8.04151644666269,9.37491870760515,7.77439133920049,7.98115971992378,9.07382975813702,8.96854564372774,7.14667060372212,14.0160708691581,8.67447833919586,9.67513888499058,9.50943000911792,13.8454623295553,8.64361783004386,10.2835398161655,13.5294700001069,11.4574167116589,12.591114824163,7.3578793336309,5.86020951651153,5.54482323343903,8.99349520173914,9.74364870830684,5.27491525713795,6.13754915429988,6.57598608546209,1e+20,10.8273120184786,9.14045075983243,10.1947778581443,8.17299426274523,6.12659026080637,9.07708066363795,7.02356443065003,9.10314762033775,6.68359111857786,8.21419775731114,12.2348618891549,7.51146622365354,8.29420944875113,6.62295108452344,3.43797038522241,14.801125997648,8.19358097944777,8.25218658157013,11.5591204162961,7.71675364888798,12.2163260962562,6.50419344022642,7.75339728002507,8.01901598200805,3.3406924567566,12.0508626208416,9.8832602290255,15.6081758872111,7.75311847859962
